* This data was exported from the Dayton Audio Test System: DATS
*
* Piston Diameter = 61 mm
* f(s)= 89.06 Hz
* R(e)= 7.409 Ohms
* Z(max)= 48.48 Ohms
* Q(ms)= 4.47
* Q(es)= 0.8065
* Q(ts)= 0.6832
* V(as)= 0.5919 liters     (0.0209 cubic feet)
* L(e)= 1.253 mH
* n(0)= 0.04943 %
* SPL= 79.04 1W/1m
* M(ms)= 6.472 grams
* C(ms)= 0.493 mm/N
* BL= 5.768 
* K(r)= 0.03498 
* X(r)= 0.6194 
* K(i)= 0.05268 
* X(i)= 0.6126 
*
*
Freq            Impedance       Phase
1.029    	7.435    	1.329    
1.059    	7.435    	1.329    
1.091    	7.435    	1.329    
1.122    	7.435    	1.329    
1.155    	7.435    	1.329    
1.189    	7.435    	1.329    
1.224    	7.435    	1.329    
1.260    	7.435    	1.329    
1.297    	7.435    	1.329    
1.335    	7.422    	1.499    
1.374    	7.422    	1.499    
1.414    	7.422    	1.499    
1.456    	7.422    	1.499    
1.498    	7.422    	1.499    
1.542    	7.422    	1.499    
1.587    	7.422    	1.499    
1.634    	7.422    	1.499    
1.682    	7.413    	1.671    
1.731    	7.413    	1.671    
1.782    	7.413    	1.671    
1.834    	7.413    	1.671    
1.888    	7.413    	1.671    
1.943    	7.413    	1.671    
2.000    	7.415    	1.911    
2.059    	7.415    	1.911    
2.119    	7.415    	1.911    
2.181    	7.415    	1.911    
2.245    	7.415    	1.911    
2.311    	7.415    	1.911    
2.378    	7.419    	2.208    
2.448    	7.419    	2.208    
2.520    	7.419    	2.208    
2.594    	7.419    	2.208    
2.670    	7.415    	2.541    
2.748    	7.415    	2.541    
2.828    	7.415    	2.541    
2.911    	7.415    	2.541    
2.997    	7.419    	2.861    
3.084    	7.419    	2.861    
3.175    	7.419    	2.861    
3.268    	7.419    	2.861    
3.364    	7.435    	3.162    
3.462    	7.435    	3.162    
3.564    	7.435    	3.162    
3.668    	7.441    	3.460    
3.775    	7.441    	3.460    
3.886    	7.441    	3.460    
4.000    	7.447    	3.744    
4.117    	7.447    	3.744    
4.238    	7.447    	3.744    
4.362    	7.440    	4.018    
4.490    	7.440    	4.018    
4.621    	7.440    	4.018    
4.757    	7.441    	4.297    
4.896    	7.441    	4.297    
5.040    	7.441    	4.585    
5.187    	7.441    	4.585    
5.339    	7.448    	4.883    
5.496    	7.448    	4.883    
5.657    	7.464    	5.190    
5.823    	7.464    	5.190    
5.993    	7.480    	5.499    
6.169    	7.480    	5.499    
6.350    	7.492    	5.809    
6.536    	7.492    	5.809    
6.727    	7.507    	6.108    
6.924    	7.507    	6.108    
7.127    	7.520    	6.394    
7.336    	7.532    	6.674    
7.551    	7.532    	6.674    
7.772    	7.542    	6.949    
8.000    	7.547    	7.219    
8.234    	7.547    	7.219    
8.476    	7.551    	7.492    
8.724    	7.560    	7.773    
8.980    	7.573    	8.066    
9.243    	7.573    	8.066    
9.514    	7.585    	8.369    
9.792    	7.595    	8.674    
10.079    	7.604    	8.975    
10.375    	7.615    	9.270    
10.679    	7.630    	9.559    
10.992    	7.649    	9.842    
11.314    	7.668    	10.119    
11.645    	7.680    	10.390    
11.986    	7.689    	10.656    
12.338    	7.699    	10.923    
12.699    	7.709    	11.195    
13.071    	7.717    	11.476    
13.454    	7.727    	11.761    
13.849    	7.739    	12.045    
14.254    	7.754    	12.327    
14.672    	7.784    	12.750    
15.102    	7.810    	13.167    
15.545    	7.824    	13.432    
16.000    	7.849    	13.812    
16.469    	7.878    	14.192    
16.951    	7.904    	14.577    
17.448    	7.929    	14.964    
17.959    	7.952    	15.365    
18.486    	7.975    	15.776    
19.027    	8.003    	16.193    
19.585    	8.044    	16.748    
20.159    	8.082    	17.164    
20.749    	8.118    	17.579    
21.357    	8.159    	18.117    
21.983    	8.202    	18.640    
22.627    	8.245    	19.145    
23.290    	8.285    	19.637    
23.973    	8.326    	20.134    
24.675    	8.377    	20.647    
25.398    	8.435    	21.178    
26.143    	8.498    	21.726    
26.909    	8.578    	22.412    
27.697    	8.656    	23.096    
28.509    	8.709    	23.642    
29.344    	8.773    	24.315    
30.204    	8.863    	25.098    
31.089    	8.937    	25.725    
32.000    	9.036    	26.393    
32.938    	9.145    	27.106    
33.903    	9.265    	27.856    
34.896    	9.385    	28.607    
35.919    	9.510    	29.370    
36.971    	9.638    	30.134    
38.055    	9.772    	30.878    
39.170    	9.945    	31.725    
40.317    	10.134    	32.552    
41.499    	10.328    	33.331    
42.715    	10.525    	34.090    
43.967    	10.731    	35.033    
45.255    	10.992    	36.085    
46.581    	11.271    	37.158    
47.946    	11.562    	38.139    
49.351    	11.881    	38.937    
50.797    	12.271    	39.818    
52.285    	12.716    	40.756    
53.817    	13.202    	41.743    
55.394    	13.793    	42.883    
57.018    	14.382    	43.819    
58.688    	15.055    	44.611    
60.408    	15.997    	45.352    
62.178    	17.081    	45.829    
64.000    	18.217    	46.093    
65.875    	19.566    	46.015    
67.806    	21.219    	45.316    
69.792    	23.155    	44.117    
71.838    	25.256    	42.572    
73.943    	27.417    	40.496    
76.109    	29.937    	37.620    
78.339    	33.110    	33.844    
80.635    	36.948    	29.081    
82.998    	41.251    	22.802    
85.430    	45.232    	14.141    
87.933    	47.984    	2.277    
90.510    	47.704    	-10.340    
93.162    	44.031    	-21.702    
95.892    	38.312    	-31.078    
98.701    	33.527    	-36.193    
101.594    	29.962    	-39.116    
104.571    	26.846    	-42.078    
107.635    	24.313    	-44.550    
110.789    	21.962    	-45.831    
114.035    	19.914    	-46.194    
117.377    	18.302    	-45.777    
120.816    	16.925    	-45.372    
124.356    	15.804    	-45.153    
128.000    	14.870    	-43.934    
131.751    	13.844    	-42.624    
135.611    	13.069    	-41.659    
139.585    	12.504    	-40.213    
143.675    	11.936    	-38.060    
147.885    	11.295    	-36.231    
152.219    	10.912    	-35.337    
156.679    	10.680    	-32.978    
161.270    	10.179    	-30.320    
165.995    	9.767    	-29.353    
170.860    	9.700    	-27.895    
175.866    	9.410    	-24.822    
181.019    	9.039    	-23.911    
186.324    	9.059    	-22.862    
191.783    	8.917    	-19.926    
197.403    	8.643    	-18.881    
203.187    	8.662    	-17.374    
209.141    	8.499    	-15.188    
215.269    	8.401    	-14.208    
221.577    	8.379    	-12.285    
228.070    	8.279    	-10.866    
234.753    	8.262    	-9.446    
241.632    	8.204    	-7.954    
248.712    	8.193    	-6.507    
256.000    	8.167    	-5.133    
263.501    	8.163    	-3.771    
271.223    	8.153    	-2.459    
279.170    	8.158    	-1.138    
287.350    	8.170    	0.139    
295.770    	8.185    	1.393    
304.437    	8.209    	2.587    
313.358    	8.236    	3.754    
322.540    	8.267    	4.946    
331.991    	8.309    	6.135    
341.719    	8.351    	7.251    
351.732    	8.398    	8.346    
362.039    	8.447    	9.405    
372.647    	8.502    	10.476    
383.567    	8.568    	11.518    
394.806    	8.630    	12.520    
406.375    	8.696    	13.535    
418.282    	8.772    	14.545    
430.539    	8.849    	15.494    
443.155    	8.932    	16.461    
456.140    	9.018    	17.376    
469.506    	9.103    	18.288    
483.264    	9.195    	19.216    
497.424    	9.290    	20.084    
512.000    	9.389    	20.952    
527.003    	9.494    	21.812    
542.445    	9.607    	22.669    
558.340    	9.724    	23.485    
574.701    	9.837    	24.297    
591.541    	9.959    	25.111    
608.874    	10.084    	25.905    
626.715    	10.213    	26.659    
645.080    	10.347    	27.418    
663.982    	10.487    	28.185    
683.438    	10.628    	28.909    
703.464    	10.777    	29.635    
724.077    	10.929    	30.363    
745.294    	11.087    	31.047    
767.133    	11.248    	31.732    
789.612    	11.412    	32.396    
812.749    	11.585    	33.065    
836.565    	11.762    	33.715    
861.078    	11.942    	34.349    
886.309    	12.129    	34.967    
912.280    	12.329    	35.573    
939.012    	12.525    	36.153    
966.527    	12.731    	36.712    
994.849    	12.942    	37.242    
1024.000    	13.139    	37.729    
1054.005    	13.335    	38.233    
1084.890    	13.548    	38.786    
1116.680    	13.757    	39.364    
1149.401    	13.994    	39.933    
1183.081    	14.234    	40.474    
1217.748    	14.481    	41.004    
1253.431    	14.730    	41.508    
1290.159    	14.994    	41.998    
1327.964    	15.263    	42.498    
1366.876    	15.537    	42.964    
1406.929    	15.839    	43.390    
1448.155    	16.111    	43.733    
1490.589    	16.375    	44.190    
1534.266    	16.675    	44.649    
1579.224    	16.992    	45.053    
1625.499    	17.311    	45.475    
1673.129    	17.636    	45.870    
1722.156    	17.970    	46.239    
1772.619    	18.314    	46.613    
1824.561    	18.667    	46.966    
1878.024    	19.026    	47.280    
1933.055    	19.404    	47.612    
1989.697    	19.793    	47.878    
2048.000    	20.184    	48.133    
2108.011    	20.566    	48.332    
2169.780    	20.945    	48.520    
2233.360    	21.309    	48.712    
2298.802    	21.687    	48.965    
2366.162    	22.066    	49.236    
2435.496    	22.481    	49.505    
2506.862    	22.886    	49.722    
2580.318    	23.296    	50.000    
2655.927    	23.711    	50.286    
2733.752    	24.159    	50.592    
2813.857    	24.624    	50.871    
2896.309    	25.108    	51.129    
2981.178    	25.604    	51.360    
3068.533    	26.114    	51.569    
3158.448    	26.624    	51.774    
3250.997    	27.148    	51.972    
3346.259    	27.678    	52.144    
3444.312    	28.216    	52.338    
3545.238    	28.771    	52.515    
3649.121    	29.342    	52.690    
3756.049    	29.925    	52.838    
3866.109    	30.514    	52.985    
3979.395    	31.119    	53.123    
4096.000    	31.731    	53.249    
4216.022    	32.356    	53.370    
4339.561    	32.995    	53.480    
4466.720    	33.643    	53.589    
4597.605    	34.304    	53.694    
4732.325    	34.979    	53.786    
4870.992    	35.668    	53.868    
5013.723    	36.370    	53.946    
5160.637    	37.080    	54.008    
5311.855    	37.804    	54.061    
5467.504    	38.539    	54.120    
5627.714    	39.277    	54.148    
5792.619    	40.024    	54.190    
5962.355    	40.794    	54.240    
6137.066    	41.573    	54.291    
6316.896    	42.388    	54.319    
6501.995    	43.212    	54.319    
6692.518    	44.022    	54.294    
6888.623    	44.841    	54.275    
7090.476    	45.642    	54.241    
7298.242    	46.433    	54.253    
7512.097    	47.257    	54.312    
7732.218    	48.103    	54.380    
7958.790    	49.007    	54.448    
8192.000    	49.931    	54.491    
8432.044    	50.876    	54.514    
8679.122    	51.829    	54.528    
8933.439    	52.796    	54.531    
9195.209    	53.770    	54.537    
9464.649    	54.759    	54.539    
9741.985    	55.754    	54.539    
10027.447    	56.766    	54.534    
10321.273    	57.800    	54.528    
10623.710    	58.841    	54.521    
10935.008    	59.903    	54.512    
11255.428    	60.972    	54.505    
11585.238    	62.061    	54.492    
11924.711    	63.166    	54.482    
12274.132    	64.294    	54.470    
12633.791    	65.430    	54.462    
13003.989    	66.576    	54.450    
13385.035    	67.747    	54.435    
13777.247    	68.925    	54.428    
14180.951    	70.120    	54.425    
14596.485    	71.332    	54.417    
15024.194    	72.561    	54.410    
15464.437    	73.804    	54.408    
15917.579    	75.068    	54.408    
16384.000    	76.368    	54.397    
16864.088    	77.635    	54.393    
17358.243    	78.924    	54.406    
17866.879    	80.182    	54.442    
18390.418    	81.429    	54.492    
18929.299    	82.667    	54.548    
19483.969    	83.896    	54.608    
20054.893    	85.101    	54.702    
20642.546    	86.226    	54.838    
