* This data was exported from the Dayton Audio Test System: DATS
*
* Piston Diameter = 345 mm
* f(s)= 42.33 Hz
* R(e)= 6.122 Ohms
* Z(max)= 50.84 Ohms
* Q(ms)= 2.808
* Q(es)= 0.3844
* Q(ts)= 0.3381
* V(as)= 122.7 liters     (4.334 cubic feet)
* L(e)= 1.228 mH
* n(0)= 2.308 %
* SPL= 95.73 1W/1m
* M(ms)= 141.4 grams
* C(ms)= 0.1 mm/N
* BL= 24.47 
* K(r)= 0.06577 
* X(r)= 0.5535 
* K(i)= 0.03118 
* X(i)= 0.6476 
*
*
Freq            Impedance       Phase
1.029    	6.144    	7.270    
1.059    	6.144    	7.270    
1.091    	6.144    	7.270    
1.122    	6.144    	7.270    
1.155    	6.144    	7.270    
1.189    	6.144    	7.270    
1.224    	6.144    	7.270    
1.260    	6.144    	7.270    
1.297    	6.144    	7.270    
1.335    	6.144    	8.019    
1.374    	6.144    	8.019    
1.414    	6.144    	8.019    
1.456    	6.144    	8.019    
1.498    	6.144    	8.019    
1.542    	6.144    	8.019    
1.587    	6.144    	8.019    
1.634    	6.144    	8.019    
1.682    	6.128    	8.771    
1.731    	6.128    	8.771    
1.782    	6.128    	8.771    
1.834    	6.128    	8.771    
1.888    	6.128    	8.771    
1.943    	6.128    	8.771    
2.000    	6.116    	9.720    
2.059    	6.116    	9.720    
2.119    	6.116    	9.720    
2.181    	6.116    	9.720    
2.245    	6.116    	9.720    
2.311    	6.116    	9.720    
2.378    	6.129    	10.913    
2.448    	6.129    	10.913    
2.520    	6.129    	10.913    
2.594    	6.129    	10.913    
2.670    	6.140    	12.345    
2.748    	6.140    	12.345    
2.828    	6.140    	12.345    
2.911    	6.140    	12.345    
2.997    	6.168    	13.771    
3.084    	6.168    	13.771    
3.175    	6.168    	13.771    
3.268    	6.168    	13.771    
3.364    	6.220    	15.125    
3.462    	6.220    	15.125    
3.564    	6.220    	15.125    
3.668    	6.304    	16.415    
3.775    	6.304    	16.415    
3.886    	6.304    	16.415    
4.000    	6.382    	17.670    
4.117    	6.382    	17.670    
4.238    	6.382    	17.670    
4.362    	6.436    	18.898    
4.490    	6.436    	18.898    
4.621    	6.436    	18.898    
4.757    	6.494    	20.118    
4.896    	6.494    	20.118    
5.040    	6.547    	21.337    
5.187    	6.547    	21.337    
5.339    	6.601    	22.561    
5.496    	6.601    	22.561    
5.657    	6.671    	23.764    
5.823    	6.671    	23.764    
5.993    	6.759    	24.918    
6.169    	6.759    	24.918    
6.350    	6.870    	26.006    
6.536    	6.870    	26.006    
6.727    	6.993    	27.003    
6.924    	6.993    	27.003    
7.127    	7.120    	27.908    
7.336    	7.246    	28.725    
7.551    	7.246    	28.725    
7.772    	7.362    	29.462    
8.000    	7.470    	30.144    
8.234    	7.470    	30.144    
8.476    	7.576    	30.795    
8.724    	7.675    	31.441    
8.980    	7.768    	32.107    
9.243    	7.768    	32.107    
9.514    	7.863    	32.795    
9.792    	7.970    	33.515    
10.079    	8.090    	34.269    
10.375    	8.218    	35.042    
10.679    	8.354    	35.812    
10.992    	8.507    	36.558    
11.314    	8.673    	37.269    
11.645    	8.846    	37.942    
11.986    	9.026    	38.572    
12.338    	9.212    	39.154    
12.699    	9.401    	39.690    
13.071    	9.589    	40.186    
13.454    	9.770    	40.655    
13.849    	9.947    	41.108    
14.254    	10.123    	41.551    
14.672    	10.396    	42.212    
15.102    	10.669    	42.889    
15.545    	10.849    	43.364    
16.000    	11.132    	44.113    
16.469    	11.425    	44.882    
16.951    	11.730    	45.657    
17.448    	12.052    	46.415    
17.959    	12.396    	47.110    
18.486    	12.744    	47.726    
19.027    	13.105    	48.209    
19.585    	13.593    	48.714    
20.159    	13.903    	49.059    
20.749    	14.177    	49.387    
21.357    	14.635    	49.812    
21.983    	15.157    	50.181    
22.627    	15.701    	50.383    
23.290    	16.279    	50.440    
23.973    	16.911    	50.381    
24.675    	17.613    	50.221    
25.398    	18.391    	49.978    
26.143    	19.251    	49.679    
26.909    	20.464    	49.252    
27.697    	21.812    	48.786    
28.509    	23.001    	48.375    
29.344    	24.584    	47.808    
30.204    	26.610    	46.995    
31.089    	28.375    	46.152    
32.000    	30.340    	44.968    
32.938    	32.483    	43.331    
33.903    	34.817    	41.092    
34.896    	37.222    	38.227    
35.919    	39.695    	34.648    
36.971    	42.171    	30.284    
38.055    	44.605    	25.105    
39.170    	47.200    	18.044    
40.317    	49.273    	10.165    
41.499    	50.536    	2.252    
42.715    	50.751    	-5.269    
43.967    	49.868    	-13.779    
45.255    	48.028    	-20.945    
46.581    	45.747    	-25.949    
47.946    	43.420    	-29.501    
49.351    	40.831    	-32.724    
50.797    	37.414    	-36.267    
52.285    	33.961    	-39.861    
53.817    	30.886    	-43.614    
55.394    	28.085    	-47.425    
57.018    	26.224    	-50.237    
58.688    	24.868    	-52.200    
60.408    	23.564    	-53.308    
62.178    	22.359    	-53.111    
64.000    	21.147    	-52.093    
65.875    	19.671    	-50.771    
67.806    	17.987    	-49.942    
69.792    	16.428    	-50.469    
71.838    	15.362    	-52.103    
73.943    	14.848    	-53.472    
76.109    	14.628    	-53.476    
78.339    	14.384    	-51.686    
80.635    	13.857    	-48.856    
82.998    	13.018    	-46.264    
85.430    	12.045    	-44.905    
87.933    	11.185    	-45.609    
90.510    	10.868    	-47.113    
93.162    	10.924    	-46.714    
95.892    	10.816    	-43.934    
98.701    	10.392    	-41.023    
101.594    	9.845    	-39.233    
104.571    	9.356    	-38.498    
107.635    	9.093    	-38.532    
110.789    	9.084    	-37.531    
114.035    	8.941    	-34.790    
117.377    	8.557    	-32.871    
120.816    	8.331    	-32.274    
124.356    	8.225    	-30.593    
128.000    	8.058    	-29.130    
131.751    	7.945    	-27.290    
135.611    	7.750    	-25.505    
139.585    	7.652    	-24.686    
143.675    	7.620    	-22.474    
147.885    	7.444    	-20.920    
152.219    	7.434    	-19.701    
156.679    	7.336    	-17.716    
161.270    	7.310    	-16.309    
165.995    	7.256    	-14.669    
170.860    	7.244    	-13.489    
175.866    	7.202    	-11.677    
181.019    	7.204    	-10.618    
186.324    	7.176    	-9.059    
191.783    	7.191    	-7.825    
197.403    	7.182    	-6.510    
203.187    	7.200    	-5.196    
209.141    	7.226    	-4.164    
215.269    	7.224    	-2.980    
221.577    	7.240    	-1.895    
228.070    	7.256    	-0.980    
234.753    	7.243    	-0.028    
241.632    	7.239    	1.089    
248.712    	7.230    	2.307    
256.000    	7.225    	3.460    
263.501    	7.222    	4.737    
271.223    	7.226    	6.121    
279.170    	7.257    	7.503    
287.350    	7.294    	8.951    
295.770    	7.353    	10.294    
304.437    	7.417    	11.625    
313.358    	7.484    	12.866    
322.540    	7.572    	14.265    
331.991    	7.689    	15.494    
341.719    	7.791    	16.492    
351.732    	7.879    	17.525    
362.039    	7.995    	18.691    
372.647    	8.114    	19.569    
383.567    	8.220    	20.722    
394.806    	8.346    	21.813    
406.375    	8.542    	23.027    
418.282    	8.734    	23.888    
430.539    	8.997    	24.733    
443.155    	9.268    	24.494    
456.140    	9.378    	24.150    
469.506    	9.441    	24.798    
483.264    	9.631    	25.023    
497.424    	9.783    	25.394    
512.000    	10.033    	24.883    
527.003    	9.934    	24.002    
542.445    	9.880    	24.964    
558.340    	9.953    	25.646    
574.701    	10.051    	26.470    
591.541    	10.162    	26.687    
608.874    	10.216    	27.225    
626.715    	10.245    	27.748    
645.080    	10.333    	28.683    
663.982    	10.459    	29.687    
683.438    	10.630    	29.765    
703.464    	10.605    	30.596    
724.077    	10.757    	31.881    
745.294    	10.962    	32.599    
767.133    	11.125    	33.188    
789.612    	11.275    	34.025    
812.749    	11.475    	34.852    
836.565    	11.750    	35.548    
861.078    	12.011    	35.837    
886.309    	12.229    	36.313    
912.280    	12.560    	36.442    
939.012    	12.765    	35.926    
966.527    	12.824    	36.006    
994.849    	12.947    	36.399    
1024.000    	13.092    	36.682    
1054.005    	13.201    	36.897    
1084.890    	13.312    	37.587    
1116.680    	13.476    	38.171    
1149.401    	13.633    	38.897    
1183.081    	13.885    	39.666    
1217.748    	14.181    	40.158    
1253.431    	14.444    	40.273    
1290.159    	14.654    	40.632    
1327.964    	14.872    	40.716    
1366.876    	15.013    	41.284    
1406.929    	15.248    	41.673    
1448.155    	15.430    	42.433    
1490.589    	15.763    	42.905    
1534.266    	16.017    	43.449    
1579.224    	16.370    	43.913    
1625.499    	16.669    	44.359    
1673.129    	17.071    	44.614    
1722.156    	17.394    	44.861    
1772.619    	17.745    	44.846    
1824.561    	18.069    	45.071    
1878.024    	18.318    	45.114    
1933.055    	18.626    	45.376    
1989.697    	18.929    	45.880    
2048.000    	19.321    	46.214    
2108.011    	19.841    	46.485    
2169.780    	20.413    	46.304    
2233.360    	20.783    	45.217    
2298.802    	20.746    	44.794    
2366.162    	20.828    	45.060    
2435.496    	20.911    	45.914    
2506.862    	21.372    	46.676    
2580.318    	21.806    	46.742    
2655.927    	22.088    	46.911    
2733.752    	22.415    	47.401    
2813.857    	22.847    	47.815    
2896.309    	23.300    	48.059    
2981.178    	23.743    	48.252    
3068.533    	24.264    	48.216    
3158.448    	24.435    	48.044    
3250.997    	24.745    	48.713    
3346.259    	25.253    	49.279    
3444.312    	25.837    	49.492    
3545.238    	26.371    	49.574    
3649.121    	26.871    	49.553    
3756.049    	27.296    	49.562    
3866.109    	27.699    	49.718    
3979.395    	28.144    	49.982    
4096.000    	28.645    	50.237    
4216.022    	29.202    	50.484    
4339.561    	29.816    	50.559    
4466.720    	30.331    	50.459    
4597.605    	30.740    	50.531    
4732.325    	31.216    	50.799    
4870.992    	31.765    	51.058    
5013.723    	32.329    	51.262    
5160.637    	32.927    	51.481    
5311.855    	33.560    	51.662    
5467.504    	34.198    	51.793    
5627.714    	34.841    	51.894    
5792.619    	35.472    	52.010    
5962.355    	36.136    	52.160    
6137.066    	36.829    	52.262    
6316.896    	37.516    	52.316    
6501.995    	38.211    	52.399    
6692.518    	38.941    	52.463    
6888.623    	39.660    	52.478    
7090.476    	40.340    	52.491    
7298.242    	41.022    	52.583    
7512.097    	41.770    	52.681    
7732.218    	42.515    	52.766    
7958.790    	43.301    	52.832    
8192.000    	44.088    	52.908    
8432.044    	44.902    	52.953    
8679.122    	45.735    	52.983    
8933.439    	46.502    	52.942    
9195.209    	47.282    	53.084    
9464.649    	48.178    	53.206    
9741.985    	49.153    	53.248    
10027.447    	50.103    	52.984    
10321.273    	50.651    	52.900    
10623.710    	51.442    	53.196    
10935.008    	52.394    	53.279    
11255.428    	53.266    	53.368    
11585.238    	54.208    	53.494    
11924.711    	55.170    	53.587    
12274.132    	56.167    	53.694    
12633.791    	57.208    	53.763    
13003.989    	58.234    	53.807    
13385.035    	59.281    	53.874    
13777.247    	60.322    	53.893    
14180.951    	61.369    	53.967    
14596.485    	62.454    	54.036    
15024.194    	63.558    	54.104    
15464.437    	64.691    	54.166    
15917.579    	65.839    	54.228    
16384.000    	67.022    	54.288    
16864.088    	68.211    	54.335    
17358.243    	69.381    	54.390    
17866.879    	70.531    	54.450    
18390.418    	71.669    	54.507    
18929.299    	72.780    	54.579    
19483.969    	73.890    	54.650    
20054.893    	74.949    	54.739    
20642.546    	75.887    	54.865    
