* This data was exported from the Dayton Audio Test System: DATS
*
* Piston Diameter = 50 mm
* f(s)= 116.9 Hz
* R(e)= 7.134 Ohms
* Z(max)= 20.48 Ohms
* Q(ms)= 1.925
* Q(es)= 1.029
* Q(ts)= 0.6704
* V(as)= 0.5939 liters     (0.02097 cubic feet)
* L(e)= 0 mH
* n(0)= 0.088 %
* SPL= 81.55 1W/1m
* M(ms)= 1.689 grams
* C(ms)= 1.097 mm/N
* BL= 2.934 
* K(r)= 0.6248 
* X(r)= 0.2502 
* K(i)= 0.001699 
* X(i)= 0.7181 
*
*
Freq            Impedance       Phase
1.029    	7.207    	0.730    
1.059    	7.207    	0.730    
1.091    	7.207    	0.730    
1.122    	7.207    	0.730    
1.155    	7.207    	0.730    
1.189    	7.207    	0.730    
1.224    	7.207    	0.730    
1.260    	7.207    	0.730    
1.297    	7.207    	0.730    
1.335    	7.178    	0.768    
1.374    	7.178    	0.768    
1.414    	7.178    	0.768    
1.456    	7.178    	0.768    
1.498    	7.178    	0.768    
1.542    	7.178    	0.768    
1.587    	7.178    	0.768    
1.634    	7.178    	0.768    
1.682    	7.135    	0.794    
1.731    	7.135    	0.794    
1.782    	7.135    	0.794    
1.834    	7.135    	0.794    
1.888    	7.135    	0.794    
1.943    	7.135    	0.794    
2.000    	7.129    	0.747    
2.059    	7.129    	0.747    
2.119    	7.129    	0.747    
2.181    	7.129    	0.747    
2.245    	7.129    	0.747    
2.311    	7.129    	0.747    
2.378    	7.126    	0.828    
2.448    	7.126    	0.828    
2.520    	7.126    	0.828    
2.594    	7.126    	0.828    
2.670    	7.141    	0.976    
2.748    	7.141    	0.976    
2.828    	7.141    	0.976    
2.911    	7.141    	0.976    
2.997    	7.147    	1.316    
3.084    	7.147    	1.316    
3.175    	7.147    	1.316    
3.268    	7.147    	1.316    
3.364    	7.151    	1.587    
3.462    	7.151    	1.587    
3.564    	7.151    	1.587    
3.668    	7.146    	1.833    
3.775    	7.146    	1.833    
3.886    	7.146    	1.833    
4.000    	7.141    	2.101    
4.117    	7.141    	2.101    
4.238    	7.141    	2.101    
4.362    	7.135    	2.323    
4.490    	7.135    	2.323    
4.621    	7.135    	2.323    
4.757    	7.136    	2.553    
4.896    	7.136    	2.553    
5.040    	7.137    	2.757    
5.187    	7.137    	2.757    
5.339    	7.143    	2.923    
5.496    	7.143    	2.923    
5.657    	7.147    	3.074    
5.823    	7.147    	3.074    
5.993    	7.150    	3.201    
6.169    	7.150    	3.201    
6.350    	7.157    	3.337    
6.536    	7.157    	3.337    
6.727    	7.167    	3.490    
6.924    	7.167    	3.490    
7.127    	7.176    	3.652    
7.336    	7.182    	3.835    
7.551    	7.182    	3.835    
7.772    	7.184    	4.013    
8.000    	7.183    	4.180    
8.234    	7.183    	4.180    
8.476    	7.182    	4.338    
8.724    	7.186    	4.471    
8.980    	7.193    	4.592    
9.243    	7.193    	4.592    
9.514    	7.198    	4.702    
9.792    	7.201    	4.795    
10.079    	7.206    	4.902    
10.375    	7.211    	5.034    
10.679    	7.215    	5.179    
10.992    	7.221    	5.329    
11.314    	7.231    	5.479    
11.645    	7.245    	5.631    
11.986    	7.259    	5.783    
12.338    	7.273    	5.917    
12.699    	7.286    	6.037    
13.071    	7.295    	6.151    
13.454    	7.301    	6.260    
13.849    	7.309    	6.377    
14.254    	7.319    	6.513    
14.672    	7.340    	6.760    
15.102    	7.365    	7.049    
15.545    	7.383    	7.262    
16.000    	7.398    	7.587    
16.469    	7.406    	7.891    
16.951    	7.414    	8.167    
17.448    	7.420    	8.412    
17.959    	7.426    	8.635    
18.486    	7.433    	8.866    
19.027    	7.438    	9.100    
19.585    	7.441    	9.403    
20.159    	7.441    	9.611    
20.749    	7.449    	9.790    
21.357    	7.467    	10.005    
21.983    	7.487    	10.190    
22.627    	7.505    	10.384    
23.290    	7.524    	10.565    
23.973    	7.547    	10.741    
24.675    	7.577    	10.928    
25.398    	7.614    	11.157    
26.143    	7.655    	11.430    
26.909    	7.700    	11.823    
27.697    	7.739    	12.207    
28.509    	7.772    	12.514    
29.344    	7.813    	12.920    
30.204    	7.852    	13.440    
31.089    	7.878    	13.862    
32.000    	7.910    	14.293    
32.938    	7.940    	14.740    
33.903    	7.967    	15.192    
34.896    	7.984    	15.574    
35.919    	8.005    	15.850    
36.971    	8.044    	16.049    
38.055    	8.090    	16.222    
39.170    	8.163    	16.441    
40.317    	8.255    	16.728    
41.499    	8.358    	17.086    
42.715    	8.473    	17.522    
43.967    	8.570    	18.279    
45.255    	8.654    	19.160    
46.581    	8.695    	19.962    
47.946    	8.714    	20.433    
49.351    	8.758    	20.609    
50.797    	8.854    	20.742    
52.285    	8.989    	21.006    
53.817    	9.136    	21.255    
55.394    	9.329    	21.663    
57.018    	9.508    	22.202    
58.688    	9.683    	22.906    
60.408    	9.854    	23.855    
62.178    	9.973    	24.617    
64.000    	10.072    	24.957    
65.875    	10.208    	24.866    
67.806    	10.485    	24.486    
69.792    	10.900    	24.629    
71.838    	11.290    	25.469    
73.943    	11.572    	26.340    
76.109    	11.800    	26.816    
78.339    	12.068    	26.604    
80.635    	12.475    	25.950    
82.998    	13.002    	25.287    
85.430    	13.652    	24.842    
87.933    	14.355    	25.094    
90.510    	14.770    	25.257    
93.162    	15.080    	23.829    
95.892    	15.836    	21.148    
98.701    	16.861    	19.159    
101.594    	17.716    	17.979    
104.571    	18.246    	16.041    
107.635    	18.615    	13.035    
110.789    	19.120    	8.504    
114.035    	20.026    	4.632    
117.377    	20.426    	2.453    
120.816    	19.941    	-1.166    
124.356    	19.744    	-6.464    
128.000    	19.808    	-10.401    
131.751    	19.512    	-12.984    
135.611    	18.518    	-15.564    
139.585    	17.725    	-19.785    
143.675    	17.519    	-22.177    
147.885    	16.587    	-22.903    
152.219    	15.648    	-25.306    
156.679    	15.183    	-27.408    
161.270    	14.624    	-27.184    
165.995    	13.667    	-28.347    
170.860    	13.371    	-29.574    
175.866    	12.831    	-28.755    
181.019    	12.161    	-29.374    
186.324    	11.958    	-29.788    
191.783    	11.409    	-28.514    
197.403    	11.043    	-29.350    
203.187    	10.822    	-28.143    
209.141    	10.331    	-28.021    
215.269    	10.264    	-27.615    
221.577    	9.803    	-26.613    
228.070    	9.722    	-26.773    
234.753    	9.428    	-25.100    
241.632    	9.292    	-25.575    
248.712    	9.081    	-23.735    
256.000    	8.937    	-24.136    
263.501    	8.771    	-22.404    
271.223    	8.683    	-22.576    
279.170    	8.495    	-21.133    
287.350    	8.469    	-20.898    
295.770    	8.274    	-20.061    
304.437    	8.257    	-19.182    
313.358    	8.137    	-18.871    
322.540    	8.045    	-17.820    
331.991    	8.014    	-17.223    
341.719    	7.929    	-16.696    
351.732    	7.868    	-15.878    
362.039    	7.840    	-15.236    
372.647    	7.797    	-14.770    
383.567    	7.738    	-14.236    
394.806    	7.685    	-13.605    
406.375    	7.647    	-13.007    
418.282    	7.613    	-12.428    
430.539    	7.583    	-11.898    
443.155    	7.554    	-11.353    
456.140    	7.528    	-10.819    
469.506    	7.508    	-10.301    
483.264    	7.485    	-9.807    
497.424    	7.462    	-9.364    
512.000    	7.442    	-8.880    
527.003    	7.423    	-8.405    
542.445    	7.407    	-7.930    
558.340    	7.392    	-7.506    
574.701    	7.376    	-7.053    
591.541    	7.363    	-6.616    
608.874    	7.345    	-6.177    
626.715    	7.333    	-5.725    
645.080    	7.327    	-5.302    
663.982    	7.319    	-4.829    
683.438    	7.314    	-4.414    
703.464    	7.310    	-4.012    
724.077    	7.309    	-3.624    
745.294    	7.304    	-3.227    
767.133    	7.301    	-2.830    
789.612    	7.295    	-2.443    
812.749    	7.293    	-2.042    
836.565    	7.291    	-1.653    
861.078    	7.294    	-1.240    
886.309    	7.295    	-0.835    
912.280    	7.298    	-0.462    
939.012    	7.309    	-0.079    
966.527    	7.314    	0.302    
994.849    	7.324    	0.726    
1024.000    	7.331    	1.006    
1054.005    	7.338    	1.355    
1084.890    	7.345    	1.688    
1116.680    	7.351    	2.008    
1149.401    	7.361    	2.364    
1183.081    	7.371    	2.726    
1217.748    	7.381    	3.077    
1253.431    	7.390    	3.427    
1290.159    	7.401    	3.771    
1327.964    	7.418    	4.118    
1366.876    	7.433    	4.479    
1406.929    	7.445    	4.823    
1448.155    	7.459    	5.144    
1490.589    	7.476    	5.492    
1534.266    	7.495    	5.820    
1579.224    	7.514    	6.170    
1625.499    	7.534    	6.501    
1673.129    	7.552    	6.814    
1722.156    	7.571    	7.158    
1772.619    	7.594    	7.489    
1824.561    	7.620    	7.837    
1878.024    	7.641    	8.199    
1933.055    	7.665    	8.543    
1989.697    	7.698    	8.935    
2048.000    	7.723    	9.222    
2108.011    	7.757    	9.580    
2169.780    	7.791    	9.922    
2233.360    	7.834    	10.256    
2298.802    	7.881    	10.525    
2366.162    	7.937    	10.738    
2435.496    	7.975    	10.765    
2506.862    	7.990    	10.796    
2580.318    	7.985    	10.990    
2655.927    	7.986    	11.355    
2733.752    	8.001    	11.781    
2813.857    	8.034    	12.182    
2896.309    	8.063    	12.572    
2981.178    	8.094    	12.955    
3068.533    	8.137    	13.283    
3158.448    	8.176    	13.615    
3250.997    	8.218    	13.955    
3346.259    	8.261    	14.313    
3444.312    	8.307    	14.635    
3545.238    	8.356    	14.938    
3649.121    	8.406    	15.240    
3756.049    	8.453    	15.531    
3866.109    	8.498    	15.791    
3979.395    	8.538    	16.025    
4096.000    	8.568    	16.349    
4216.022    	8.611    	16.731    
4339.561    	8.661    	17.083    
4466.720    	8.716    	17.425    
4597.605    	8.771    	17.760    
4732.325    	8.826    	18.067    
4870.992    	8.886    	18.409    
5013.723    	8.940    	18.687    
5160.637    	8.994    	19.019    
5311.855    	9.054    	19.336    
5467.504    	9.111    	19.666    
5627.714    	9.174    	20.028    
5792.619    	9.240    	20.355    
5962.355    	9.306    	20.684    
6137.066    	9.373    	20.984    
6316.896    	9.447    	21.294    
6501.995    	9.521    	21.637    
6692.518    	9.594    	21.948    
6888.623    	9.670    	22.275    
7090.476    	9.745    	22.588    
7298.242    	9.828    	22.907    
7512.097    	9.914    	23.215    
7732.218    	10.002    	23.519    
7958.790    	10.094    	23.815    
8192.000    	10.180    	24.040    
8432.044    	10.261    	24.332    
8679.122    	10.351    	24.643    
8933.439    	10.448    	24.944    
9195.209    	10.547    	25.243    
9464.649    	10.645    	25.512    
9741.985    	10.744    	25.786    
10027.447    	10.844    	26.048    
10321.273    	10.953    	26.325    
10623.710    	11.058    	26.591    
10935.008    	11.166    	26.840    
11255.428    	11.277    	27.079    
11585.238    	11.388    	27.326    
11924.711    	11.502    	27.574    
12274.132    	11.622    	27.799    
12633.791    	11.740    	28.033    
13003.989    	11.859    	28.249    
13385.035    	11.983    	28.469    
13777.247    	12.109    	28.659    
14180.951    	12.235    	28.855    
14596.485    	12.358    	29.044    
15024.194    	12.478    	29.244    
15464.437    	12.609    	29.454    
15917.579    	12.727    	29.642    
16384.000    	12.851    	29.847    
16864.088    	12.981    	30.086    
17358.243    	13.109    	30.304    
17866.879    	13.249    	30.534    
18390.418    	13.391    	30.720    
18929.299    	13.522    	30.946    
19483.969    	13.666    	31.128    
20054.893    	13.809    	31.308    
20642.546    	13.952    	31.539    
