* This data was exported from the Dayton Audio Test System: DATS
*
* Piston Diameter = 70 mm
* f(s)= 107.2 Hz
* R(e)= 3.835 Ohms
* Z(max)= 58.53 Ohms
* Q(ms)= 5.633
* Q(es)= 0.395
* Q(ts)= 0.3691
* V(as)= 1.869 liters     (0.06602 cubic feet)
* L(e)= 0 mH
* n(0)= 0.5554 %
* SPL= 89.55 1W/1m
* M(ms)= 2.454 grams
* C(ms)= 0.899 mm/N
* BL= 4.006 
* K(r)= 0.07062 
* X(r)= 0.4148 
* K(i)= 0.000368 
* X(i)= 0.8698 
*
*
Freq            Impedance       Phase
1.029    	3.864    	1.925    
1.059    	3.864    	1.925    
1.091    	3.864    	1.925    
1.122    	3.864    	1.925    
1.155    	3.864    	1.925    
1.189    	3.864    	1.925    
1.224    	3.864    	1.925    
1.260    	3.864    	1.925    
1.297    	3.864    	1.925    
1.335    	3.848    	2.154    
1.374    	3.848    	2.154    
1.414    	3.848    	2.154    
1.456    	3.848    	2.154    
1.498    	3.848    	2.154    
1.542    	3.848    	2.154    
1.587    	3.848    	2.154    
1.634    	3.848    	2.154    
1.682    	3.845    	2.372    
1.731    	3.845    	2.372    
1.782    	3.845    	2.372    
1.834    	3.845    	2.372    
1.888    	3.845    	2.372    
1.943    	3.845    	2.372    
2.000    	3.835    	2.648    
2.059    	3.835    	2.648    
2.119    	3.835    	2.648    
2.181    	3.835    	2.648    
2.245    	3.835    	2.648    
2.311    	3.835    	2.648    
2.378    	3.843    	3.080    
2.448    	3.843    	3.080    
2.520    	3.843    	3.080    
2.594    	3.843    	3.080    
2.670    	3.839    	3.620    
2.748    	3.839    	3.620    
2.828    	3.839    	3.620    
2.911    	3.839    	3.620    
2.997    	3.838    	4.240    
3.084    	3.838    	4.240    
3.175    	3.838    	4.240    
3.268    	3.838    	4.240    
3.364    	3.856    	4.814    
3.462    	3.856    	4.814    
3.564    	3.856    	4.814    
3.668    	3.867    	5.369    
3.775    	3.867    	5.369    
3.886    	3.867    	5.369    
4.000    	3.886    	5.927    
4.117    	3.886    	5.927    
4.238    	3.886    	5.927    
4.362    	3.887    	6.439    
4.490    	3.887    	6.439    
4.621    	3.887    	6.439    
4.757    	3.884    	6.946    
4.896    	3.884    	6.946    
5.040    	3.880    	7.454    
5.187    	3.880    	7.454    
5.339    	3.876    	7.962    
5.496    	3.876    	7.962    
5.657    	3.878    	8.463    
5.823    	3.878    	8.463    
5.993    	3.888    	8.936    
6.169    	3.888    	8.936    
6.350    	3.911    	9.395    
6.536    	3.911    	9.395    
6.727    	3.942    	9.838    
6.924    	3.942    	9.838    
7.127    	3.962    	10.252    
7.336    	3.974    	10.647    
7.551    	3.974    	10.647    
7.772    	3.982    	11.031    
8.000    	3.979    	11.437    
8.234    	3.979    	11.437    
8.476    	3.975    	11.889    
8.724    	3.978    	12.378    
8.980    	3.985    	12.894    
9.243    	3.985    	12.894    
9.514    	3.997    	13.409    
9.792    	4.015    	13.897    
10.079    	4.040    	14.355    
10.375    	4.066    	14.772    
10.679    	4.084    	15.129    
10.992    	4.096    	15.434    
11.314    	4.105    	15.725    
11.645    	4.108    	16.049    
11.986    	4.108    	16.422    
12.338    	4.110    	16.835    
12.699    	4.116    	17.287    
13.071    	4.124    	17.773    
13.454    	4.134    	18.266    
13.849    	4.152    	18.735    
14.254    	4.181    	19.155    
14.672    	4.229    	19.666    
15.102    	4.273    	20.084    
15.545    	4.297    	20.340    
16.000    	4.308    	20.759    
16.469    	4.307    	21.246    
16.951    	4.320    	21.863    
17.448    	4.339    	22.546    
17.959    	4.370    	23.240    
18.486    	4.414    	23.905    
19.027    	4.463    	24.458    
19.585    	4.522    	25.051    
20.159    	4.559    	25.445    
20.749    	4.588    	25.838    
21.357    	4.611    	26.472    
21.983    	4.633    	27.261    
22.627    	4.664    	28.167    
23.290    	4.712    	29.060    
23.973    	4.778    	29.848    
24.675    	4.842    	30.481    
25.398    	4.893    	30.989    
26.143    	4.936    	31.479    
26.909    	4.977    	32.171    
27.697    	5.015    	32.985    
28.509    	5.056    	33.684    
29.344    	5.123    	34.516    
30.204    	5.228    	35.346    
31.089    	5.316    	35.894    
32.000    	5.401    	36.434    
32.938    	5.482    	37.103    
33.903    	5.572    	37.980    
34.896    	5.676    	38.992    
35.919    	5.792    	39.992    
36.971    	5.913    	40.867    
38.055    	6.024    	41.625    
39.170    	6.139    	42.459    
40.317    	6.247    	43.307    
41.499    	6.366    	44.129    
42.715    	6.507    	44.872    
43.967    	6.666    	45.685    
45.255    	6.859    	46.419    
46.581    	7.051    	47.101    
47.946    	7.247    	47.863    
49.351    	7.475    	48.681    
50.797    	7.737    	49.703    
52.285    	8.011    	50.745    
53.817    	8.280    	51.737    
55.394    	8.559    	52.614    
57.018    	8.818    	53.212    
58.688    	9.129    	53.754    
60.408    	9.576    	54.362    
62.178    	10.088    	54.963    
64.000    	10.593    	55.691    
65.875    	11.137    	56.547    
67.806    	11.742    	57.346    
69.792    	12.420    	57.974    
71.838    	13.164    	58.341    
73.943    	14.014    	58.362    
76.109    	15.136    	58.219    
78.339    	16.571    	58.237    
80.635    	18.155    	58.431    
82.998    	19.840    	58.288    
85.430    	21.792    	57.296    
87.933    	24.541    	55.294    
90.510    	28.087    	52.735    
93.162    	32.454    	49.379    
95.892    	38.305    	44.008    
98.701    	44.393    	36.130    
101.594    	50.552    	24.471    
104.571    	56.229    	8.661    
107.635    	58.165    	-7.567    
110.789    	53.895    	-22.544    
114.035    	46.389    	-34.779    
117.377    	39.484    	-44.269    
120.816    	33.990    	-51.286    
124.356    	29.741    	-54.678    
128.000    	25.705    	-56.555    
131.751    	22.459    	-59.638    
135.611    	20.537    	-61.673    
139.585    	18.773    	-61.365    
143.675    	16.680    	-61.574    
147.885    	15.327    	-63.410    
152.219    	14.630    	-62.795    
156.679    	13.318    	-61.018    
161.270    	12.213    	-62.533    
165.995    	11.954    	-62.002    
170.860    	11.034    	-58.836    
175.866    	10.123    	-60.630    
181.019    	10.211    	-59.572    
186.324    	9.336    	-55.165    
191.783    	8.631    	-58.658    
197.403    	9.021    	-55.307    
203.187    	7.878    	-51.708    
209.141    	7.864    	-57.642    
215.269    	8.018    	-50.195    
221.577    	6.799    	-51.846    
228.070    	7.394    	-52.525    
234.753    	6.668    	-46.649    
241.632    	6.570    	-50.506    
248.712    	6.452    	-45.090    
256.000    	6.110    	-46.698    
263.501    	6.089    	-43.551    
271.223    	5.866    	-43.612    
279.170    	5.772    	-41.661    
287.350    	5.639    	-41.239    
295.770    	5.473    	-39.693    
304.437    	5.393    	-38.562    
313.358    	5.263    	-37.460    
322.540    	5.172    	-35.974    
331.991    	5.099    	-34.858    
341.719    	5.012    	-33.755    
351.732    	4.940    	-32.597    
362.039    	4.870    	-31.521    
372.647    	4.800    	-30.447    
383.567    	4.736    	-29.326    
394.806    	4.674    	-28.162    
406.375    	4.620    	-26.953    
418.282    	4.578    	-25.765    
430.539    	4.549    	-24.683    
443.155    	4.522    	-23.781    
456.140    	4.481    	-22.874    
469.506    	4.445    	-21.929    
483.264    	4.409    	-20.963    
497.424    	4.376    	-20.056    
512.000    	4.341    	-19.086    
527.003    	4.312    	-18.087    
542.445    	4.290    	-17.157    
558.340    	4.269    	-16.282    
574.701    	4.245    	-15.337    
591.541    	4.221    	-14.433    
608.874    	4.201    	-13.447    
626.715    	4.187    	-12.489    
645.080    	4.176    	-11.545    
663.982    	4.169    	-10.620    
683.438    	4.163    	-9.749    
703.464    	4.153    	-8.936    
724.077    	4.147    	-8.064    
745.294    	4.139    	-7.151    
767.133    	4.139    	-6.254    
789.612    	4.140    	-5.317    
812.749    	4.142    	-4.402    
836.565    	4.149    	-3.500    
861.078    	4.162    	-2.531    
886.309    	4.190    	-1.395    
912.280    	4.294    	-0.691    
939.012    	4.310    	-1.741    
966.527    	4.235    	-1.278    
994.849    	4.202    	-0.231    
1024.000    	4.198    	0.667    
1054.005    	4.204    	1.582    
1084.890    	4.213    	2.392    
1116.680    	4.227    	3.169    
1149.401    	4.242    	3.954    
1183.081    	4.258    	4.723    
1217.748    	4.281    	5.469    
1253.431    	4.298    	6.189    
1290.159    	4.319    	6.930    
1327.964    	4.344    	7.623    
1366.876    	4.370    	8.322    
1406.929    	4.395    	9.039    
1448.155    	4.421    	9.712    
1490.589    	4.454    	10.400    
1534.266    	4.491    	11.046    
1579.224    	4.533    	11.703    
1625.499    	4.581    	12.226    
1673.129    	4.618    	12.686    
1722.156    	4.659    	13.185    
1772.619    	4.696    	13.566    
1824.561    	4.731    	13.970    
1878.024    	4.762    	14.377    
1933.055    	4.792    	14.847    
1989.697    	4.823    	15.403    
2048.000    	4.858    	15.878    
2108.011    	4.907    	16.312    
2169.780    	4.939    	16.644    
2233.360    	4.973    	17.147    
2298.802    	5.021    	17.619    
2366.162    	5.070    	17.982    
2435.496    	5.102    	18.241    
2506.862    	5.132    	18.641    
2580.318    	5.168    	19.103    
2655.927    	5.209    	19.559    
2733.752    	5.253    	19.978    
2813.857    	5.300    	20.368    
2896.309    	5.343    	20.720    
2981.178    	5.384    	21.069    
3068.533    	5.429    	21.417    
3158.448    	5.472    	21.728    
3250.997    	5.518    	22.064    
3346.259    	5.559    	22.280    
3444.312    	5.577    	22.457    
3545.238    	5.589    	23.033    
3649.121    	5.633    	23.557    
3756.049    	5.662    	24.073    
3866.109    	5.707    	24.650    
3979.395    	5.750    	25.179    
4096.000    	5.795    	25.721    
4216.022    	5.844    	26.277    
4339.561    	5.894    	26.841    
4466.720    	5.952    	27.425    
4597.605    	6.014    	27.980    
4732.325    	6.074    	28.557    
4870.992    	6.142    	29.113    
5013.723    	6.210    	29.682    
5160.637    	6.287    	30.255    
5311.855    	6.370    	30.767    
5467.504    	6.453    	31.277    
5627.714    	6.543    	31.794    
5792.619    	6.648    	32.287    
5962.355    	6.763    	32.501    
6137.066    	6.826    	32.538    
6316.896    	6.893    	32.931    
6501.995    	6.969    	33.300    
6692.518    	7.035    	33.707    
6888.623    	7.108    	34.208    
7090.476    	7.187    	34.755    
7298.242    	7.280    	35.317    
7512.097    	7.383    	35.855    
7732.218    	7.498    	36.391    
7958.790    	7.627    	36.773    
8192.000    	7.731    	36.970    
8432.044    	7.813    	37.377    
8679.122    	7.912    	37.971    
8933.439    	8.038    	38.562    
9195.209    	8.176    	39.092    
9464.649    	8.323    	39.602    
9741.985    	8.481    	40.001    
10027.447    	8.639    	40.439    
10321.273    	8.827    	40.811    
10623.710    	9.034    	40.990    
10935.008    	9.237    	40.855    
11255.428    	9.392    	40.479    
11585.238    	9.462    	40.237    
11924.711    	9.513    	40.575    
12274.132    	9.629    	41.145    
12633.791    	9.787    	41.705    
13003.989    	9.981    	42.227    
13385.035    	10.240    	42.643    
13777.247    	10.541    	42.523    
14180.951    	10.785    	41.835    
14596.485    	10.933    	41.157    
15024.194    	11.040    	40.452    
15464.437    	11.026    	39.628    
15917.579    	10.871    	39.833    
16384.000    	10.862    	40.927    
16864.088    	10.986    	41.944    
17358.243    	11.180    	42.715    
17866.879    	11.394    	43.173    
18390.418    	11.587    	43.382    
18929.299    	11.736    	43.616    
19483.969    	11.905    	43.994    
20054.893    	12.111    	44.206    
20642.546    	12.289    	44.096    
