* This data was exported from the Dayton Audio Test System: DATS
*
* Piston Diameter = 95 mm
* f(s)= 75.94 Hz
* R(e)= 3.698 Ohms
* Z(max)= 30.2 Ohms
* Q(ms)= 4.694
* Q(es)= 0.6551
* Q(ts)= 0.5748
* V(as)= 2.583 liters     (0.0912 cubic feet)
* L(e)= 0.6775 mH
* n(0)= 0.1646 %
* SPL= 84.27 1W/1m
* M(ms)= 12 grams
* C(ms)= 0.366 mm/N
* BL= 5.685 
* K(r)= 0.02071 
* X(r)= 0.6104 
* K(i)= 0.02581 
* X(i)= 0.6223 
*
*
Freq            Impedance       Phase
1.029    	3.713    	1.738    
1.059    	3.713    	1.738    
1.091    	3.713    	1.738    
1.122    	3.713    	1.738    
1.155    	3.713    	1.738    
1.189    	3.713    	1.738    
1.224    	3.713    	1.738    
1.260    	3.713    	1.738    
1.297    	3.713    	1.738    
1.335    	3.708    	1.942    
1.374    	3.708    	1.942    
1.414    	3.708    	1.942    
1.456    	3.708    	1.942    
1.498    	3.708    	1.942    
1.542    	3.708    	1.942    
1.587    	3.708    	1.942    
1.634    	3.708    	1.942    
1.682    	3.707    	2.180    
1.731    	3.707    	2.180    
1.782    	3.707    	2.180    
1.834    	3.707    	2.180    
1.888    	3.707    	2.180    
1.943    	3.707    	2.180    
2.000    	3.700    	2.477    
2.059    	3.700    	2.477    
2.119    	3.700    	2.477    
2.181    	3.700    	2.477    
2.245    	3.700    	2.477    
2.311    	3.700    	2.477    
2.378    	3.705    	2.847    
2.448    	3.705    	2.847    
2.520    	3.705    	2.847    
2.594    	3.705    	2.847    
2.670    	3.710    	3.306    
2.748    	3.710    	3.306    
2.828    	3.710    	3.306    
2.911    	3.710    	3.306    
2.997    	3.717    	3.827    
3.084    	3.717    	3.827    
3.175    	3.717    	3.827    
3.268    	3.717    	3.827    
3.364    	3.726    	4.335    
3.462    	3.726    	4.335    
3.564    	3.726    	4.335    
3.668    	3.725    	4.835    
3.775    	3.725    	4.835    
3.886    	3.725    	4.835    
4.000    	3.743    	5.319    
4.117    	3.743    	5.319    
4.238    	3.743    	5.319    
4.362    	3.746    	5.790    
4.490    	3.746    	5.790    
4.621    	3.746    	5.790    
4.757    	3.751    	6.266    
4.896    	3.751    	6.266    
5.040    	3.754    	6.710    
5.187    	3.754    	6.710    
5.339    	3.758    	7.126    
5.496    	3.758    	7.126    
5.657    	3.765    	7.521    
5.823    	3.765    	7.521    
5.993    	3.769    	7.893    
6.169    	3.769    	7.893    
6.350    	3.778    	8.263    
6.536    	3.778    	8.263    
6.727    	3.789    	8.634    
6.924    	3.789    	8.634    
7.127    	3.796    	9.021    
7.336    	3.807    	9.427    
7.551    	3.807    	9.427    
7.772    	3.817    	9.833    
8.000    	3.822    	10.250    
8.234    	3.822    	10.250    
8.476    	3.831    	10.676    
8.724    	3.839    	11.105    
8.980    	3.847    	11.534    
9.243    	3.847    	11.534    
9.514    	3.858    	11.942    
9.792    	3.870    	12.333    
10.079    	3.881    	12.734    
10.375    	3.889    	13.143    
10.679    	3.893    	13.545    
10.992    	3.901    	13.930    
11.314    	3.913    	14.303    
11.645    	3.924    	14.691    
11.986    	3.934    	15.094    
12.338    	3.943    	15.490    
12.699    	3.956    	15.874    
13.071    	3.972    	16.244    
13.454    	3.984    	16.609    
13.849    	3.995    	16.976    
14.254    	4.009    	17.337    
14.672    	4.031    	17.855    
15.102    	4.055    	18.369    
15.545    	4.072    	18.735    
16.000    	4.091    	19.320    
16.469    	4.111    	19.900    
16.951    	4.140    	20.482    
17.448    	4.167    	21.064    
17.959    	4.191    	21.623    
18.486    	4.218    	22.170    
19.027    	4.249    	22.712    
19.585    	4.288    	23.434    
20.159    	4.319    	23.975    
20.749    	4.349    	24.514    
21.357    	4.384    	25.250    
21.983    	4.423    	25.983    
22.627    	4.464    	26.720    
23.290    	4.508    	27.433    
23.973    	4.551    	28.116    
24.675    	4.601    	28.778    
25.398    	4.652    	29.424    
26.143    	4.704    	30.076    
26.909    	4.773    	30.904    
27.697    	4.840    	31.740    
28.509    	4.897    	32.393    
29.344    	4.965    	33.231    
30.204    	5.058    	34.197    
31.089    	5.145    	34.955    
32.000    	5.239    	35.720    
32.938    	5.343    	36.541    
33.903    	5.461    	37.426    
34.896    	5.583    	38.336    
35.919    	5.714    	39.269    
36.971    	5.852    	40.206    
38.055    	5.995    	41.120    
39.170    	6.169    	42.115    
40.317    	6.352    	43.007    
41.499    	6.545    	43.772    
42.715    	6.756    	44.498    
43.967    	6.989    	45.430    
45.255    	7.283    	46.381    
46.581    	7.608    	47.291    
47.946    	7.963    	48.151    
49.351    	8.372    	48.844    
50.797    	8.839    	49.471    
52.285    	9.345    	50.065    
53.817    	9.940    	50.595    
55.394    	10.688    	51.088    
57.018    	11.464    	51.293    
58.688    	12.383    	51.201    
60.408    	13.741    	50.440    
62.178    	15.390    	48.943    
64.000    	17.192    	46.742    
65.875    	19.361    	43.270    
67.806    	21.886    	37.952    
69.792    	24.540    	30.879    
71.838    	27.129    	22.323    
73.943    	29.253    	12.067    
76.109    	30.096    	-0.660    
78.339    	28.881    	-14.307    
80.635    	26.137    	-25.406    
82.998    	23.063    	-33.172    
85.430    	20.330    	-38.673    
87.933    	17.876    	-43.227    
90.510    	15.818    	-46.194    
93.162    	14.124    	-47.602    
95.892    	12.540    	-48.232    
98.701    	11.373    	-48.126    
101.594    	10.553    	-47.374    
104.571    	9.880    	-47.017    
107.635    	9.228    	-46.707    
110.789    	8.636    	-45.727    
114.035    	8.167    	-44.873    
117.377    	7.836    	-44.238    
120.816    	7.458    	-43.011    
124.356    	7.070    	-41.519    
128.000    	6.841    	-40.585    
131.751    	6.652    	-40.630    
135.611    	6.387    	-39.867    
139.585    	6.015    	-38.021    
143.675    	5.666    	-37.034    
147.885    	5.515    	-35.958    
152.219    	5.387    	-33.596    
156.679    	5.129    	-30.924    
161.270    	4.917    	-30.328    
165.995    	4.897    	-28.927    
170.860    	4.787    	-26.202    
175.866    	4.616    	-24.616    
181.019    	4.578    	-23.466    
186.324    	4.515    	-21.039    
191.783    	4.421    	-19.543    
197.403    	4.386    	-18.138    
203.187    	4.340    	-16.197    
209.141    	4.300    	-14.834    
215.269    	4.275    	-13.121    
221.577    	4.251    	-11.742    
228.070    	4.226    	-10.396    
234.753    	4.192    	-8.995    
241.632    	4.184    	-7.470    
248.712    	4.168    	-6.162    
256.000    	4.156    	-4.717    
263.501    	4.148    	-3.344    
271.223    	4.146    	-1.967    
279.170    	4.149    	-0.697    
287.350    	4.146    	0.704    
295.770    	4.154    	2.023    
304.437    	4.163    	3.325    
313.358    	4.179    	4.642    
322.540    	4.201    	5.976    
331.991    	4.224    	7.228    
341.719    	4.248    	8.455    
351.732    	4.276    	9.683    
362.039    	4.307    	10.861    
372.647    	4.343    	12.023    
383.567    	4.382    	13.146    
394.806    	4.420    	14.248    
406.375    	4.462    	15.362    
418.282    	4.511    	16.441    
430.539    	4.555    	17.493    
443.155    	4.609    	18.528    
456.140    	4.661    	19.519    
469.506    	4.717    	20.521    
483.264    	4.777    	21.512    
497.424    	4.840    	22.421    
512.000    	4.909    	23.395    
527.003    	4.980    	24.282    
542.445    	5.055    	25.156    
558.340    	5.131    	26.011    
574.701    	5.212    	26.784    
591.541    	5.296    	27.515    
608.874    	5.375    	28.302    
626.715    	5.465    	29.065    
645.080    	5.568    	29.790    
663.982    	5.684    	30.445    
683.438    	5.818    	30.886    
703.464    	5.952    	30.849    
724.077    	6.022    	30.418    
745.294    	6.019    	30.341    
767.133    	6.004    	30.772    
789.612    	6.002    	31.747    
812.749    	6.047    	32.969    
836.565    	6.140    	34.112    
861.078    	6.259    	35.029    
886.309    	6.356    	35.590    
912.280    	6.443    	36.426    
939.012    	6.565    	37.236    
966.527    	6.697    	37.906    
994.849    	6.826    	38.296    
1024.000    	6.897    	38.703    
1054.005    	6.996    	39.460    
1084.890    	7.119    	40.201    
1116.680    	7.248    	40.860    
1149.401    	7.384    	41.489    
1183.081    	7.522    	42.073    
1217.748    	7.670    	42.617    
1253.431    	7.814    	43.140    
1290.159    	7.967    	43.661    
1327.964    	8.124    	44.151    
1366.876    	8.285    	44.611    
1406.929    	8.452    	45.078    
1448.155    	8.625    	45.459    
1490.589    	8.803    	45.846    
1534.266    	8.989    	46.203    
1579.224    	9.177    	46.511    
1625.499    	9.371    	46.723    
1673.129    	9.562    	46.869    
1722.156    	9.738    	46.931    
1772.619    	9.893    	46.984    
1824.561    	10.033    	47.174    
1878.024    	10.176    	47.493    
1933.055    	10.324    	47.879    
1989.697    	10.497    	48.385    
2048.000    	10.684    	48.823    
2108.011    	10.895    	49.249    
2169.780    	11.109    	49.636    
2233.360    	11.346    	49.977    
2298.802    	11.566    	50.175    
2366.162    	11.776    	50.473    
2435.496    	12.002    	50.805    
2506.862    	12.243    	51.125    
2580.318    	12.493    	51.382    
2655.927    	12.748    	51.645    
2733.752    	13.010    	51.876    
2813.857    	13.276    	52.102    
2896.309    	13.543    	52.300    
2981.178    	13.817    	52.536    
3068.533    	14.099    	52.709    
3158.448    	14.390    	52.887    
3250.997    	14.685    	53.060    
3346.259    	14.986    	53.226    
3444.312    	15.296    	53.381    
3545.238    	15.619    	53.530    
3649.121    	15.957    	53.670    
3756.049    	16.315    	53.791    
3866.109    	16.713    	53.686    
3979.395    	16.958    	53.439    
4096.000    	17.289    	53.716    
4216.022    	17.638    	53.662    
4339.561    	18.025    	53.706    
4466.720    	18.365    	53.088    
4597.605    	18.422    	53.277    
4732.325    	18.770    	53.853    
4870.992    	19.174    	54.095    
5013.723    	19.570    	54.237    
5160.637    	19.975    	54.323    
5311.855    	20.381    	54.378    
5467.504    	20.779    	54.409    
5627.714    	21.186    	54.452    
5792.619    	21.588    	54.489    
5962.355    	21.996    	54.531    
6137.066    	22.409    	54.568    
6316.896    	22.845    	54.634    
6501.995    	23.289    	54.625    
6692.518    	23.728    	54.666    
6888.623    	24.179    	54.698    
7090.476    	24.640    	54.724    
7298.242    	25.113    	54.734    
7512.097    	25.593    	54.740    
7732.218    	26.075    	54.737    
7958.790    	26.567    	54.732    
8192.000    	27.064    	54.719    
8432.044    	27.572    	54.712    
8679.122    	28.085    	54.693    
8933.439    	28.605    	54.673    
9195.209    	29.133    	54.644    
9464.649    	29.659    	54.627    
9741.985    	30.204    	54.609    
10027.447    	30.749    	54.577    
10321.273    	31.304    	54.550    
10623.710    	31.863    	54.515    
10935.008    	32.432    	54.487    
11255.428    	33.006    	54.454    
11585.238    	33.593    	54.416    
11924.711    	34.168    	54.344    
12274.132    	34.733    	54.352    
12633.791    	35.348    	54.359    
13003.989    	35.960    	54.341    
13385.035    	36.589    	54.332    
13777.247    	37.219    	54.309    
14180.951    	37.855    	54.301    
14596.485    	38.503    	54.284    
15024.194    	39.155    	54.269    
15464.437    	39.828    	54.253    
15917.579    	40.483    	54.241    
16384.000    	41.162    	54.243    
16864.088    	41.841    	54.241    
17358.243    	42.516    	54.250    
17866.879    	43.182    	54.278    
18390.418    	43.841    	54.306    
18929.299    	44.488    	54.364    
19483.969    	45.127    	54.432    
20054.893    	45.739    	54.528    
20642.546    	46.293    	54.696    
