* This data was exported from the Dayton Audio Test System: DATS
*
* Piston Diameter = 95 mm
* f(s)= 76.85 Hz
* R(e)= 3.268 Ohms
* Z(max)= 27.67 Ohms
* Q(ms)= 5.708
* Q(es)= 0.7646
* Q(ts)= 0.6743
* V(as)= 3.904 liters     (0.1379 cubic feet)
* L(e)= 0.3145 mH
* n(0)= 0.221 %
* SPL= 85.54 1W/1m
* M(ms)= 7.752 grams
* C(ms)= 0.553 mm/N
* BL= 4 
* K(r)= 0.03126 
* X(r)= 0.519 
* K(i)= 0.006036 
* X(i)= 0.6868 
*
*
Freq            Impedance       Phase
1.029    	3.288    	2.078    
1.059    	3.288    	2.078    
1.091    	3.288    	2.078    
1.122    	3.288    	2.078    
1.155    	3.288    	2.078    
1.189    	3.288    	2.078    
1.224    	3.288    	2.078    
1.260    	3.288    	2.078    
1.297    	3.288    	2.078    
1.335    	3.279    	2.195    
1.374    	3.279    	2.195    
1.414    	3.279    	2.195    
1.456    	3.279    	2.195    
1.498    	3.279    	2.195    
1.542    	3.279    	2.195    
1.587    	3.279    	2.195    
1.634    	3.279    	2.195    
1.682    	3.274    	2.284    
1.731    	3.274    	2.284    
1.782    	3.274    	2.284    
1.834    	3.274    	2.284    
1.888    	3.274    	2.284    
1.943    	3.274    	2.284    
2.000    	3.275    	2.395    
2.059    	3.275    	2.395    
2.119    	3.275    	2.395    
2.181    	3.275    	2.395    
2.245    	3.275    	2.395    
2.311    	3.275    	2.395    
2.378    	3.278    	2.573    
2.448    	3.278    	2.573    
2.520    	3.278    	2.573    
2.594    	3.278    	2.573    
2.670    	3.281    	2.839    
2.748    	3.281    	2.839    
2.828    	3.281    	2.839    
2.911    	3.281    	2.839    
2.997    	3.278    	3.163    
3.084    	3.278    	3.163    
3.175    	3.278    	3.163    
3.268    	3.278    	3.163    
3.364    	3.279    	3.545    
3.462    	3.279    	3.545    
3.564    	3.279    	3.545    
3.668    	3.274    	3.965    
3.775    	3.274    	3.965    
3.886    	3.274    	3.965    
4.000    	3.280    	4.424    
4.117    	3.280    	4.424    
4.238    	3.280    	4.424    
4.362    	3.283    	4.877    
4.490    	3.283    	4.877    
4.621    	3.283    	4.877    
4.757    	3.298    	5.288    
4.896    	3.298    	5.288    
5.040    	3.314    	5.655    
5.187    	3.314    	5.655    
5.339    	3.328    	5.965    
5.496    	3.328    	5.965    
5.657    	3.336    	6.221    
5.823    	3.336    	6.221    
5.993    	3.336    	6.442    
6.169    	3.336    	6.442    
6.350    	3.333    	6.662    
6.536    	3.333    	6.662    
6.727    	3.329    	6.931    
6.924    	3.329    	6.931    
7.127    	3.325    	7.263    
7.336    	3.322    	7.634    
7.551    	3.322    	7.634    
7.772    	3.321    	8.013    
8.000    	3.326    	8.375    
8.234    	3.326    	8.375    
8.476    	3.336    	8.724    
8.724    	3.349    	9.068    
8.980    	3.363    	9.394    
9.243    	3.363    	9.394    
9.514    	3.377    	9.691    
9.792    	3.390    	9.960    
10.079    	3.402    	10.220    
10.375    	3.410    	10.499    
10.679    	3.413    	10.804    
10.992    	3.411    	11.129    
11.314    	3.407    	11.471    
11.645    	3.404    	11.835    
11.986    	3.405    	12.229    
12.338    	3.410    	12.646    
12.699    	3.419    	13.061    
13.071    	3.431    	13.453    
13.454    	3.445    	13.816    
13.849    	3.457    	14.148    
14.254    	3.467    	14.447    
14.672    	3.484    	14.825    
15.102    	3.504    	15.168    
15.545    	3.515    	15.406    
16.000    	3.521    	15.804    
16.469    	3.525    	16.252    
16.951    	3.539    	16.785    
17.448    	3.554    	17.381    
17.959    	3.567    	17.991    
18.486    	3.586    	18.580    
19.027    	3.611    	19.107    
19.585    	3.643    	19.717    
20.159    	3.662    	20.144    
20.749    	3.678    	20.551    
21.357    	3.700    	21.100    
21.983    	3.718    	21.709    
22.627    	3.736    	22.364    
23.290    	3.761    	23.060    
23.973    	3.788    	23.745    
24.675    	3.822    	24.399    
25.398    	3.861    	24.985    
26.143    	3.896    	25.535    
26.909    	3.932    	26.230    
27.697    	3.969    	27.010    
28.509    	4.004    	27.729    
29.344    	4.050    	28.695    
30.204    	4.115    	29.735    
31.089    	4.169    	30.463    
32.000    	4.225    	31.155    
32.938    	4.280    	31.924    
33.903    	4.343    	32.829    
34.896    	4.414    	33.813    
35.919    	4.495    	34.896    
36.971    	4.590    	36.056    
38.055    	4.701    	37.072    
39.170    	4.836    	37.991    
40.317    	4.952    	38.849    
41.499    	5.057    	39.685    
42.715    	5.163    	40.550    
43.967    	5.298    	41.895    
45.255    	5.508    	43.453    
46.581    	5.766    	44.911    
47.946    	6.043    	46.142    
49.351    	6.301    	46.845    
50.797    	6.577    	47.555    
52.285    	6.853    	48.518    
53.817    	7.207    	50.016    
55.394    	7.723    	52.271    
57.018    	8.368    	54.482    
58.688    	9.229    	55.927    
60.408    	10.618    	56.180    
62.178    	12.329    	54.847    
64.000    	14.145    	52.143    
65.875    	16.259    	47.942    
67.806    	18.650    	41.708    
69.792    	21.238    	33.765    
71.838    	23.845    	24.377    
73.943    	26.096    	13.577    
76.109    	27.452    	-0.065    
78.339    	27.024    	-16.659    
80.635    	24.236    	-32.015    
82.998    	20.189    	-42.478    
85.430    	16.656    	-47.330    
87.933    	14.214    	-49.989    
90.510    	12.660    	-51.408    
93.162    	11.423    	-51.981    
95.892    	10.239    	-52.835    
98.701    	9.358    	-53.492    
101.594    	8.696    	-53.394    
104.571    	8.039    	-53.060    
107.635    	7.521    	-52.692    
110.789    	7.033    	-51.710    
114.035    	6.604    	-51.028    
117.377    	6.318    	-50.294    
120.816    	6.023    	-48.493    
124.356    	5.708    	-47.014    
128.000    	5.470    	-45.649    
131.751    	5.263    	-44.238    
135.611    	5.129    	-42.401    
139.585    	4.936    	-39.947    
143.675    	4.731    	-38.478    
147.885    	4.619    	-36.719    
152.219    	4.503    	-34.739    
156.679    	4.348    	-32.633    
161.270    	4.224    	-31.705    
165.995    	4.198    	-30.076    
170.860    	4.144    	-28.455    
175.866    	4.088    	-27.113    
181.019    	4.059    	-26.168    
186.324    	3.972    	-24.695    
191.783    	3.907    	-23.918    
197.403    	3.846    	-22.728    
203.187    	3.790    	-21.106    
209.141    	3.753    	-20.017    
215.269    	3.700    	-18.568    
221.577    	3.678    	-17.078    
228.070    	3.659    	-16.132    
234.753    	3.613    	-14.801    
241.632    	3.612    	-13.412    
248.712    	3.595    	-12.531    
256.000    	3.570    	-11.245    
263.501    	3.567    	-10.067    
271.223    	3.563    	-9.023    
279.170    	3.560    	-7.974    
287.350    	3.559    	-6.854    
295.770    	3.560    	-5.844    
304.437    	3.564    	-5.010    
313.358    	3.561    	-4.151    
322.540    	3.563    	-3.272    
331.991    	3.557    	-2.353    
341.719    	3.563    	-1.401    
351.732    	3.563    	-0.487    
362.039    	3.570    	0.388    
372.647    	3.581    	1.254    
383.567    	3.589    	2.183    
394.806    	3.600    	3.047    
406.375    	3.614    	3.882    
418.282    	3.625    	4.735    
430.539    	3.642    	5.515    
443.155    	3.658    	6.319    
456.140    	3.672    	7.149    
469.506    	3.689    	7.909    
483.264    	3.711    	8.732    
497.424    	3.734    	9.496    
512.000    	3.755    	10.275    
527.003    	3.779    	10.981    
542.445    	3.802    	11.765    
558.340    	3.829    	12.546    
574.701    	3.854    	13.239    
591.541    	3.881    	13.952    
608.874    	3.910    	14.676    
626.715    	3.941    	15.368    
645.080    	3.973    	16.104    
663.982    	4.008    	16.846    
683.438    	4.045    	17.505    
703.464    	4.080    	18.215    
724.077    	4.122    	18.903    
745.294    	4.161    	19.629    
767.133    	4.205    	20.294    
789.612    	4.250    	21.000    
812.749    	4.303    	21.643    
836.565    	4.360    	22.319    
861.078    	4.420    	22.970    
886.309    	4.487    	23.508    
912.280    	4.556    	23.994    
939.012    	4.634    	24.306    
966.527    	4.699    	24.484    
994.849    	4.761    	24.498    
1024.000    	4.790    	24.511    
1054.005    	4.811    	24.820    
1084.890    	4.834    	25.278    
1116.680    	4.870    	25.841    
1149.401    	4.913    	26.464    
1183.081    	4.964    	27.071    
1217.748    	5.025    	27.621    
1253.431    	5.091    	28.129    
1290.159    	5.161    	28.607    
1327.964    	5.238    	28.947    
1366.876    	5.308    	29.194    
1406.929    	5.374    	29.345    
1448.155    	5.424    	29.438    
1490.589    	5.458    	29.602    
1534.266    	5.491    	29.960    
1579.224    	5.521    	30.411    
1625.499    	5.548    	30.983    
1673.129    	5.593    	31.714    
1722.156    	5.655    	32.409    
1772.619    	5.723    	33.044    
1824.561    	5.805    	33.683    
1878.024    	5.882    	34.199    
1933.055    	5.963    	34.740    
1989.697    	6.051    	35.275    
2048.000    	6.139    	35.713    
2108.011    	6.221    	36.148    
2169.780    	6.310    	36.626    
2233.360    	6.396    	37.091    
2298.802    	6.489    	37.620    
2366.162    	6.586    	38.013    
2435.496    	6.680    	38.458    
2506.862    	6.776    	38.927    
2580.318    	6.879    	39.377    
2655.927    	6.990    	39.828    
2733.752    	7.103    	40.251    
2813.857    	7.216    	40.655    
2896.309    	7.334    	41.068    
2981.178    	7.454    	41.476    
3068.533    	7.578    	41.831    
3158.448    	7.705    	42.190    
3250.997    	7.835    	42.522    
3346.259    	7.964    	42.841    
3444.312    	8.095    	43.154    
3545.238    	8.230    	43.466    
3649.121    	8.367    	43.784    
3756.049    	8.505    	44.096    
3866.109    	8.650    	44.418    
3979.395    	8.796    	44.724    
4096.000    	8.944    	44.994    
4216.022    	9.094    	45.266    
4339.561    	9.254    	45.556    
4466.720    	9.414    	45.807    
4597.605    	9.576    	46.057    
4732.325    	9.740    	46.290    
4870.992    	9.904    	46.513    
5013.723    	10.068    	46.764    
5160.637    	10.234    	47.021    
5311.855    	10.408    	47.275    
5467.504    	10.588    	47.527    
5627.714    	10.773    	47.783    
5792.619    	10.962    	48.029    
5962.355    	11.157    	48.275    
6137.066    	11.355    	48.493    
6316.896    	11.559    	48.723    
6501.995    	11.771    	48.917    
6692.518    	11.984    	49.070    
6888.623    	12.196    	49.223    
7090.476    	12.404    	49.401    
7298.242    	12.615    	49.600    
7512.097    	12.837    	49.809    
7732.218    	13.068    	50.012    
7958.790    	13.304    	50.201    
8192.000    	13.546    	50.391    
8432.044    	13.796    	50.576    
8679.122    	14.050    	50.738    
8933.439    	14.311    	50.894    
9195.209    	14.581    	51.049    
9464.649    	14.862    	51.171    
9741.985    	15.143    	51.241    
10027.447    	15.424    	51.233    
10321.273    	15.671    	51.189    
10623.710    	15.903    	51.301    
10935.008    	16.159    	51.499    
11255.428    	16.436    	51.707    
11585.238    	16.729    	51.885    
11924.711    	17.035    	52.038    
12274.132    	17.345    	52.174    
12633.791    	17.655    	52.275    
13003.989    	17.971    	52.392    
13385.035    	18.294    	52.501    
13777.247    	18.611    	52.609    
14180.951    	18.931    	52.738    
14596.485    	19.265    	52.877    
15024.194    	19.609    	53.013    
15464.437    	19.961    	53.135    
15917.579    	20.318    	53.256    
16384.000    	20.686    	53.367    
16864.088    	21.054    	53.467    
17358.243    	21.421    	53.590    
17866.879    	21.773    	53.716    
18390.418    	22.117    	53.843    
18929.299    	22.462    	53.979    
19483.969    	22.801    	54.133    
20054.893    	23.110    	54.304    
20642.546    	23.401    	54.520    
