* This data was exported from the Dayton Audio Test System: DATS
*
* Piston Diameter = 120 mm
* f(s)= 71.19 Hz
* R(e)= 3.706 Ohms
* Z(max)= 33 Ohms
* Q(ms)= 8.176
* Q(es)= 1.034
* Q(ts)= 0.918
* V(as)= 6.605 liters     (0.2333 cubic feet)
* L(e)= 0.7126 mH
* n(0)= 0.2198 %
* SPL= 85.52 1W/1m
* M(ms)= 13.59 grams
* C(ms)= 0.368 mm/N
* BL= 4.668 
* K(r)= 0.01399 
* X(r)= 0.6446 
* K(i)= 0.01924 
* X(i)= 0.652 
*
*
Freq            Impedance       Phase
1.029    	3.893    	-2.624    
1.059    	3.893    	-2.624    
1.091    	3.893    	-2.624    
1.122    	3.893    	-2.624    
1.155    	3.893    	-2.624    
1.189    	3.893    	-2.624    
1.224    	3.893    	-2.624    
1.260    	3.893    	-2.624    
1.297    	3.893    	-2.624    
1.335    	3.804    	-2.088    
1.374    	3.804    	-2.088    
1.414    	3.804    	-2.088    
1.456    	3.804    	-2.088    
1.498    	3.804    	-2.088    
1.542    	3.804    	-2.088    
1.587    	3.804    	-2.088    
1.634    	3.804    	-2.088    
1.682    	3.767    	-1.647    
1.731    	3.767    	-1.647    
1.782    	3.767    	-1.647    
1.834    	3.767    	-1.647    
1.888    	3.767    	-1.647    
1.943    	3.767    	-1.647    
2.000    	3.698    	-1.304    
2.059    	3.698    	-1.304    
2.119    	3.698    	-1.304    
2.181    	3.698    	-1.304    
2.245    	3.698    	-1.304    
2.311    	3.698    	-1.304    
2.378    	3.713    	-0.701    
2.448    	3.713    	-0.701    
2.520    	3.713    	-0.701    
2.594    	3.713    	-0.701    
2.670    	3.700    	0.120    
2.748    	3.700    	0.120    
2.828    	3.700    	0.120    
2.911    	3.700    	0.120    
2.997    	3.700    	1.210    
3.084    	3.700    	1.210    
3.175    	3.700    	1.210    
3.268    	3.700    	1.210    
3.364    	3.725    	2.101    
3.462    	3.725    	2.101    
3.564    	3.725    	2.101    
3.668    	3.705    	2.763    
3.775    	3.705    	2.763    
3.886    	3.705    	2.763    
4.000    	3.714    	3.376    
4.117    	3.714    	3.376    
4.238    	3.714    	3.376    
4.362    	3.714    	3.834    
4.490    	3.714    	3.834    
4.621    	3.714    	3.834    
4.757    	3.717    	4.321    
4.896    	3.717    	4.321    
5.040    	3.724    	4.813    
5.187    	3.724    	4.813    
5.339    	3.718    	5.252    
5.496    	3.718    	5.252    
5.657    	3.716    	5.615    
5.823    	3.716    	5.615    
5.993    	3.711    	5.891    
6.169    	3.711    	5.891    
6.350    	3.715    	6.186    
6.536    	3.715    	6.186    
6.727    	3.730    	6.507    
6.924    	3.730    	6.507    
7.127    	3.725    	6.828    
7.336    	3.728    	7.155    
7.551    	3.728    	7.155    
7.772    	3.740    	7.459    
8.000    	3.731    	7.790    
8.234    	3.731    	7.790    
8.476    	3.722    	8.166    
8.724    	3.722    	8.533    
8.980    	3.725    	8.884    
9.243    	3.725    	8.884    
9.514    	3.731    	9.178    
9.792    	3.734    	9.413    
10.079    	3.745    	9.670    
10.375    	3.756    	9.953    
10.679    	3.745    	10.203    
10.992    	3.731    	10.389    
11.314    	3.732    	10.536    
11.645    	3.738    	10.723    
11.986    	3.743    	10.955    
12.338    	3.746    	11.158    
12.699    	3.746    	11.334    
13.071    	3.749    	11.531    
13.454    	3.753    	11.769    
13.849    	3.759    	12.040    
14.254    	3.773    	12.317    
14.672    	3.791    	12.740    
15.102    	3.818    	13.213    
15.545    	3.846    	13.550    
16.000    	3.870    	14.039    
16.469    	3.889    	14.526    
16.951    	3.923    	15.050    
17.448    	3.936    	15.529    
17.959    	3.945    	16.029    
18.486    	3.957    	16.570    
19.027    	3.971    	17.047    
19.585    	3.983    	17.682    
20.159    	3.990    	18.164    
20.749    	4.009    	18.621    
21.357    	4.027    	19.296    
21.983    	4.044    	19.978    
22.627    	4.059    	20.665    
23.290    	4.090    	21.262    
23.973    	4.098    	21.900    
24.675    	4.124    	22.589    
25.398    	4.150    	23.258    
26.143    	4.180    	23.890    
26.909    	4.220    	24.493    
27.697    	4.258    	25.102    
28.509    	4.296    	25.599    
29.344    	4.351    	26.312    
30.204    	4.403    	27.251    
31.089    	4.461    	28.178    
32.000    	4.513    	29.197    
32.938    	4.597    	30.327    
33.903    	4.703    	31.516    
34.896    	4.783    	32.602    
35.919    	4.856    	33.601    
36.971    	4.930    	34.523    
38.055    	5.007    	35.379    
39.170    	5.105    	36.447    
40.317    	5.216    	37.654    
41.499    	5.343    	38.955    
42.715    	5.524    	40.187    
43.967    	5.759    	41.733    
45.255    	6.005    	43.003    
46.581    	6.262    	44.105    
47.946    	6.552    	45.289    
49.351    	6.844    	46.624    
50.797    	7.222    	48.077    
52.285    	7.700    	50.134    
53.817    	8.291    	52.026    
55.394    	9.194    	53.401    
57.018    	10.235    	54.350    
58.688    	11.533    	54.465    
60.408    	13.503    	53.048    
62.178    	15.946    	50.335    
64.000    	18.698    	46.244    
65.875    	22.454    	39.393    
67.806    	27.218    	28.285    
69.792    	31.522    	11.180    
71.838    	32.479    	-10.722    
73.943    	28.076    	-30.506    
76.109    	21.882    	-43.319    
78.339    	16.974    	-49.295    
80.635    	13.819    	-51.652    
82.998    	11.719    	-51.795    
85.430    	10.216    	-51.321    
87.933    	9.067    	-50.003    
90.510    	8.229    	-48.403    
93.162    	7.590    	-47.044    
95.892    	6.974    	-45.406    
98.701    	6.519    	-43.538    
101.594    	6.144    	-41.472    
104.571    	5.834    	-39.374    
107.635    	5.578    	-37.422    
110.789    	5.368    	-35.725    
114.035    	5.187    	-34.233    
117.377    	5.032    	-32.596    
120.816    	4.879    	-30.346    
124.356    	4.710    	-28.353    
128.000    	4.565    	-26.857    
131.751    	4.503    	-25.677    
135.611    	4.499    	-23.674    
139.585    	4.420    	-20.787    
143.675    	4.233    	-18.895    
147.885    	4.145    	-18.740    
152.219    	4.212    	-17.856    
156.679    	4.217    	-14.790    
161.270    	4.076    	-13.204    
165.995    	4.061    	-12.954    
170.860    	4.108    	-11.181    
175.866    	4.046    	-9.283    
181.019    	4.018    	-8.789    
186.324    	4.032    	-7.371    
191.783    	3.994    	-6.173    
197.403    	3.983    	-5.038    
203.187    	3.973    	-3.575    
209.141    	3.973    	-2.675    
215.269    	3.979    	-1.092    
221.577    	3.975    	-0.182    
228.070    	3.992    	1.008    
234.753    	3.989    	2.088    
241.632    	4.016    	3.116    
248.712    	4.008    	4.080    
256.000    	4.033    	5.180    
263.501    	4.038    	6.175    
271.223    	4.060    	7.318    
279.170    	4.078    	8.157    
287.350    	4.098    	9.248    
295.770    	4.128    	10.135    
304.437    	4.143    	11.095    
313.358    	4.179    	12.025    
322.540    	4.210    	12.868    
331.991    	4.234    	13.797    
341.719    	4.269    	14.676    
351.732    	4.298    	15.539    
362.039    	4.329    	16.428    
372.647    	4.367    	17.308    
383.567    	4.409    	18.165    
394.806    	4.448    	18.966    
406.375    	4.490    	19.820    
418.282    	4.534    	20.626    
430.539    	4.576    	21.410    
443.155    	4.624    	22.240    
456.140    	4.676    	22.961    
469.506    	4.722    	23.778    
483.264    	4.773    	24.589    
497.424    	4.828    	25.334    
512.000    	4.885    	26.077    
527.003    	4.947    	26.816    
542.445    	5.009    	27.530    
558.340    	5.075    	28.260    
574.701    	5.138    	28.959    
591.541    	5.207    	29.600    
608.874    	5.275    	30.234    
626.715    	5.340    	30.843    
645.080    	5.406    	31.468    
663.982    	5.472    	32.180    
683.438    	5.545    	32.882    
703.464    	5.621    	33.577    
724.077    	5.703    	34.271    
745.294    	5.792    	34.959    
767.133    	5.884    	35.607    
789.612    	5.987    	36.211    
812.749    	6.082    	36.668    
836.565    	6.156    	37.137    
861.078    	6.238    	37.805    
886.309    	6.338    	38.478    
912.280    	6.441    	39.146    
939.012    	6.553    	39.704    
966.527    	6.668    	40.279    
994.849    	6.786    	40.858    
1024.000    	6.892    	41.415    
1054.005    	7.016    	41.914    
1084.890    	7.144    	42.440    
1116.680    	7.268    	42.939    
1149.401    	7.400    	43.442    
1183.081    	7.534    	43.921    
1217.748    	7.678    	44.409    
1253.431    	7.824    	44.857    
1290.159    	7.974    	45.315    
1327.964    	8.130    	45.711    
1366.876    	8.289    	46.133    
1406.929    	8.457    	46.531    
1448.155    	8.633    	46.886    
1490.589    	8.814    	47.168    
1534.266    	9.013    	47.362    
1579.224    	9.208    	47.397    
1625.499    	9.368    	47.229    
1673.129    	9.460    	47.158    
1722.156    	9.532    	47.537    
1772.619    	9.666    	48.207    
1824.561    	9.844    	48.739    
1878.024    	10.023    	49.192    
1933.055    	10.200    	49.605    
1989.697    	10.399    	50.086    
2048.000    	10.599    	50.516    
2108.011    	10.821    	50.891    
2169.780    	11.045    	51.213    
2233.360    	11.266    	51.505    
2298.802    	11.490    	51.827    
2366.162    	11.727    	52.133    
2435.496    	11.964    	52.408    
2506.862    	12.213    	52.672    
2580.318    	12.463    	52.897    
2655.927    	12.720    	53.142    
2733.752    	12.982    	53.356    
2813.857    	13.250    	53.569    
2896.309    	13.519    	53.770    
2981.178    	13.798    	53.987    
3068.533    	14.089    	54.144    
3158.448    	14.384    	54.293    
3250.997    	14.681    	54.441    
3346.259    	14.978    	54.587    
3444.312    	15.282    	54.731    
3545.238    	15.605    	54.870    
3649.121    	15.939    	54.941    
3756.049    	16.248    	54.998    
3866.109    	16.570    	55.138    
3979.395    	16.907    	55.243    
4096.000    	17.246    	55.320    
4216.022    	17.587    	55.409    
4339.561    	17.942    	55.505    
4466.720    	18.304    	55.600    
4597.605    	18.675    	55.701    
4732.325    	19.081    	55.780    
4870.992    	19.486    	55.661    
5013.723    	19.791    	55.644    
5160.637    	20.173    	55.850    
5311.855    	20.603    	55.963    
5467.504    	21.041    	56.009    
5627.714    	21.498    	55.942    
5792.619    	21.915    	55.744    
5962.355    	22.235    	55.652    
6137.066    	22.586    	55.875    
6316.896    	23.048    	56.045    
6501.995    	23.519    	56.121    
6692.518    	23.993    	56.188    
6888.623    	24.479    	56.207    
7090.476    	24.960    	56.203    
7298.242    	25.444    	56.198    
7512.097    	25.932    	56.207    
7732.218    	26.436    	56.221    
7958.790    	26.949    	56.223    
8192.000    	27.469    	56.201    
8432.044    	27.999    	56.199    
8679.122    	28.533    	56.181    
8933.439    	29.078    	56.153    
9195.209    	29.628    	56.124    
9464.649    	30.182    	56.095    
9741.985    	30.740    	56.065    
10027.447    	31.306    	56.036    
10321.273    	31.886    	56.024    
10623.710    	32.467    	55.987    
10935.008    	33.061    	55.960    
11255.428    	33.660    	55.927    
11585.238    	34.274    	55.909    
11924.711    	34.894    	55.882    
12274.132    	35.522    	55.856    
12633.791    	36.158    	55.832    
13003.989    	36.798    	55.808    
13385.035    	37.453    	55.787    
13777.247    	38.111    	55.763    
14180.951    	38.775    	55.742    
14596.485    	39.454    	55.729    
15024.194    	40.135    	55.717    
15464.437    	40.837    	55.708    
15917.579    	41.538    	55.702    
16384.000    	42.259    	55.697    
16864.088    	42.991    	55.677    
17358.243    	43.672    	55.651    
17866.879    	44.358    	55.706    
18390.418    	45.046    	55.755    
18929.299    	45.721    	55.814    
19483.969    	46.389    	55.878    
20054.893    	47.021    	55.977    
20642.546    	47.620    	56.157    
