* This data was exported from the Dayton Audio Test System: DATS
*
* Piston Diameter = 86 mm
* f(s)= 82.84 Hz
* R(e)= 3.728 Ohms
* Z(max)= 22.29 Ohms
* Q(ms)= 3.954
* Q(es)= 0.7941
* Q(ts)= 0.6613
* V(as)= 2.942 liters     (0.1039 cubic feet)
* L(e)= 0.2569 mH
* n(0)= 0.2008 %
* SPL= 85.13 1W/1m
* M(ms)= 5.946 grams
* C(ms)= 0.621 mm/N
* BL= 3.811 
* K(r)= 0.06358 
* X(r)= 0.4508 
* K(i)= 0.004034 
* X(i)= 0.7129 
*
*
Freq            Impedance       Phase
1.029    	3.726    	1.695    
1.059    	3.726    	1.695    
1.091    	3.726    	1.695    
1.122    	3.726    	1.695    
1.155    	3.726    	1.695    
1.189    	3.726    	1.695    
1.224    	3.726    	1.695    
1.260    	3.726    	1.695    
1.297    	3.726    	1.695    
1.335    	3.720    	1.758    
1.374    	3.720    	1.758    
1.414    	3.720    	1.758    
1.456    	3.720    	1.758    
1.498    	3.720    	1.758    
1.542    	3.720    	1.758    
1.587    	3.720    	1.758    
1.634    	3.720    	1.758    
1.682    	3.721    	1.833    
1.731    	3.721    	1.833    
1.782    	3.721    	1.833    
1.834    	3.721    	1.833    
1.888    	3.721    	1.833    
1.943    	3.721    	1.833    
2.000    	3.722    	1.965    
2.059    	3.722    	1.965    
2.119    	3.722    	1.965    
2.181    	3.722    	1.965    
2.245    	3.722    	1.965    
2.311    	3.722    	1.965    
2.378    	3.726    	2.092    
2.448    	3.726    	2.092    
2.520    	3.726    	2.092    
2.594    	3.726    	2.092    
2.670    	3.727    	2.271    
2.748    	3.727    	2.271    
2.828    	3.727    	2.271    
2.911    	3.727    	2.271    
2.997    	3.725    	2.432    
3.084    	3.725    	2.432    
3.175    	3.725    	2.432    
3.268    	3.725    	2.432    
3.364    	3.729    	2.667    
3.462    	3.729    	2.667    
3.564    	3.729    	2.667    
3.668    	3.724    	2.924    
3.775    	3.724    	2.924    
3.886    	3.724    	2.924    
4.000    	3.731    	3.183    
4.117    	3.731    	3.183    
4.238    	3.731    	3.183    
4.362    	3.733    	3.460    
4.490    	3.733    	3.460    
4.621    	3.733    	3.460    
4.757    	3.742    	3.713    
4.896    	3.742    	3.713    
5.040    	3.749    	3.939    
5.187    	3.749    	3.939    
5.339    	3.754    	4.125    
5.496    	3.754    	4.125    
5.657    	3.757    	4.282    
5.823    	3.757    	4.282    
5.993    	3.757    	4.442    
6.169    	3.757    	4.442    
6.350    	3.757    	4.612    
6.536    	3.757    	4.612    
6.727    	3.757    	4.811    
6.924    	3.757    	4.811    
7.127    	3.758    	5.043    
7.336    	3.759    	5.292    
7.551    	3.759    	5.292    
7.772    	3.760    	5.551    
8.000    	3.763    	5.803    
8.234    	3.763    	5.803    
8.476    	3.769    	6.049    
8.724    	3.778    	6.297    
8.980    	3.787    	6.525    
9.243    	3.787    	6.525    
9.514    	3.796    	6.734    
9.792    	3.804    	6.937    
10.079    	3.811    	7.144    
10.375    	3.816    	7.370    
10.679    	3.818    	7.604    
10.992    	3.818    	7.831    
11.314    	3.817    	8.061    
11.645    	3.818    	8.304    
11.986    	3.821    	8.562    
12.338    	3.825    	8.825    
12.699    	3.830    	9.075    
13.071    	3.837    	9.315    
13.454    	3.844    	9.554    
13.849    	3.851    	9.777    
14.254    	3.858    	9.974    
14.672    	3.869    	10.247    
15.102    	3.877    	10.532    
15.545    	3.880    	10.733    
16.000    	3.887    	11.047    
16.469    	3.894    	11.394    
16.951    	3.901    	11.774    
17.448    	3.908    	12.166    
17.959    	3.917    	12.563    
18.486    	3.930    	12.963    
19.027    	3.946    	13.338    
19.585    	3.962    	13.789    
20.159    	3.971    	14.114    
20.749    	3.980    	14.432    
21.357    	3.991    	14.859    
21.983    	4.004    	15.300    
22.627    	4.015    	15.739    
23.290    	4.028    	16.194    
23.973    	4.047    	16.638    
24.675    	4.068    	17.089    
25.398    	4.092    	17.551    
26.143    	4.117    	18.026    
26.909    	4.142    	18.664    
27.697    	4.166    	19.294    
28.509    	4.188    	19.780    
29.344    	4.213    	20.371    
30.204    	4.241    	21.056    
31.089    	4.265    	21.610    
32.000    	4.295    	22.195    
32.938    	4.333    	22.868    
33.903    	4.378    	23.635    
34.896    	4.427    	24.411    
35.919    	4.478    	25.153    
36.971    	4.526    	25.876    
38.055    	4.566    	26.591    
39.170    	4.618    	27.458    
40.317    	4.680    	28.386    
41.499    	4.757    	29.278    
42.715    	4.850    	30.066    
43.967    	4.949    	31.014    
45.255    	5.056    	31.976    
46.581    	5.152    	33.024    
47.946    	5.240    	34.205    
49.351    	5.329    	35.188    
50.797    	5.499    	36.456    
52.285    	5.725    	37.754    
53.817    	5.956    	38.922    
55.394    	6.198    	40.059    
57.018    	6.408    	40.963    
58.688    	6.643    	42.032    
60.408    	6.989    	43.607    
62.178    	7.456    	45.604    
64.000    	8.031    	47.583    
65.875    	8.821    	49.194    
67.806    	9.941    	49.694    
69.792    	11.431    	48.748    
71.838    	13.222    	46.477    
73.943    	15.176    	42.541    
76.109    	17.384    	35.999    
78.339    	19.729    	26.674    
80.635    	21.589    	15.500    
82.998    	22.218    	3.398    
85.430    	21.505    	-8.822    
87.933    	19.817    	-20.345    
90.510    	17.422    	-27.574    
93.162    	15.177    	-30.848    
95.892    	13.551    	-33.017    
98.701    	12.706    	-34.276    
101.594    	12.163    	-35.235    
104.571    	11.673    	-37.220    
107.635    	11.332    	-40.047    
110.789    	10.756    	-43.232    
114.035    	9.968    	-46.683    
117.377    	9.207    	-48.420    
120.816    	8.398    	-48.406    
124.356    	7.796    	-47.847    
128.000    	7.373    	-46.807    
131.751    	6.950    	-46.275    
135.611    	6.647    	-44.903    
139.585    	6.293    	-43.055    
143.675    	5.982    	-41.731    
147.885    	5.711    	-40.078    
152.219    	5.524    	-38.617    
156.679    	5.302    	-36.195    
161.270    	5.048    	-34.565    
165.995    	4.839    	-33.826    
170.860    	4.807    	-33.389    
175.866    	4.750    	-30.967    
181.019    	4.595    	-28.912    
186.324    	4.468    	-28.254    
191.783    	4.446    	-26.510    
197.403    	4.338    	-24.827    
203.187    	4.249    	-23.844    
209.141    	4.226    	-22.631    
215.269    	4.179    	-21.294    
221.577    	4.118    	-19.741    
228.070    	4.089    	-18.753    
234.753    	4.062    	-17.526    
241.632    	4.010    	-16.534    
248.712    	4.007    	-15.286    
256.000    	3.969    	-14.273    
263.501    	3.956    	-13.300    
271.223    	3.922    	-12.264    
279.170    	3.916    	-11.177    
287.350    	3.903    	-10.206    
295.770    	3.892    	-9.223    
304.437    	3.884    	-8.345    
313.358    	3.875    	-7.470    
322.540    	3.870    	-6.529    
331.991    	3.867    	-5.653    
341.719    	3.863    	-4.792    
351.732    	3.860    	-3.948    
362.039    	3.860    	-3.089    
372.647    	3.864    	-2.342    
383.567    	3.867    	-1.478    
394.806    	3.872    	-0.700    
406.375    	3.877    	0.081    
418.282    	3.885    	0.831    
430.539    	3.891    	1.560    
443.155    	3.899    	2.303    
456.140    	3.908    	3.061    
469.506    	3.917    	3.758    
483.264    	3.927    	4.543    
497.424    	3.942    	5.238    
512.000    	3.955    	5.915    
527.003    	3.970    	6.574    
542.445    	3.984    	7.274    
558.340    	4.000    	7.985    
574.701    	4.018    	8.651    
591.541    	4.036    	9.318    
608.874    	4.055    	9.978    
626.715    	4.074    	10.636    
645.080    	4.094    	11.291    
663.982    	4.118    	11.962    
683.438    	4.143    	12.569    
703.464    	4.166    	13.235    
724.077    	4.194    	13.884    
745.294    	4.219    	14.499    
767.133    	4.248    	15.108    
789.612    	4.277    	15.748    
812.749    	4.307    	16.367    
836.565    	4.340    	16.992    
861.078    	4.368    	17.623    
886.309    	4.402    	18.194    
912.280    	4.436    	18.835    
939.012    	4.473    	19.414    
966.527    	4.507    	20.052    
994.849    	4.547    	20.634    
1024.000    	4.590    	21.228    
1054.005    	4.629    	21.797    
1084.890    	4.669    	22.397    
1116.680    	4.715    	22.971    
1149.401    	4.761    	23.537    
1183.081    	4.808    	24.102    
1217.748    	4.856    	24.709    
1253.431    	4.909    	25.259    
1290.159    	4.961    	25.843    
1327.964    	5.016    	26.394    
1366.876    	5.074    	26.944    
1406.929    	5.135    	27.504    
1448.155    	5.198    	27.975    
1490.589    	5.258    	28.417    
1534.266    	5.319    	28.904    
1579.224    	5.384    	29.472    
1625.499    	5.450    	29.968    
1673.129    	5.520    	30.446    
1722.156    	5.593    	30.912    
1772.619    	5.664    	31.359    
1824.561    	5.741    	31.774    
1878.024    	5.818    	32.162    
1933.055    	5.889    	32.567    
1989.697    	5.966    	33.009    
2048.000    	6.039    	33.403    
2108.011    	6.121    	33.829    
2169.780    	6.205    	34.229    
2233.360    	6.291    	34.612    
2298.802    	6.370    	34.957    
2366.162    	6.450    	35.347    
2435.496    	6.529    	35.753    
2506.862    	6.615    	36.182    
2580.318    	6.706    	36.642    
2655.927    	6.815    	37.088    
2733.752    	6.902    	37.312    
2813.857    	6.992    	37.821    
2896.309    	7.097    	38.284    
2981.178    	7.203    	38.744    
3068.533    	7.315    	39.145    
3158.448    	7.439    	39.563    
3250.997    	7.570    	39.974    
3346.259    	7.709    	40.281    
3444.312    	7.850    	40.444    
3545.238    	7.979    	40.571    
3649.121    	8.093    	40.711    
3756.049    	8.205    	40.910    
3866.109    	8.318    	41.142    
3979.395    	8.436    	41.502    
4096.000    	8.582    	41.769    
4216.022    	8.711    	41.851    
4339.561    	8.813    	42.049    
4466.720    	8.928    	42.397    
4597.605    	9.063    	42.756    
4732.325    	9.203    	43.082    
4870.992    	9.351    	43.397    
5013.723    	9.503    	43.718    
5160.637    	9.665    	43.983    
5311.855    	9.828    	44.189    
5467.504    	9.993    	44.285    
5627.714    	10.125    	44.389    
5792.619    	10.259    	44.717    
5962.355    	10.421    	45.057    
6137.066    	10.586    	45.297    
6316.896    	10.756    	45.554    
6501.995    	10.926    	45.806    
6692.518    	11.097    	46.090    
6888.623    	11.286    	46.344    
7090.476    	11.469    	46.560    
7298.242    	11.645    	46.833    
7512.097    	11.846    	47.127    
7732.218    	12.048    	47.344    
7958.790    	12.250    	47.588    
8192.000    	12.460    	47.856    
8432.044    	12.679    	48.067    
8679.122    	12.901    	48.254    
8933.439    	13.122    	48.436    
9195.209    	13.345    	48.636    
9464.649    	13.572    	48.840    
9741.985    	13.805    	49.051    
10027.447    	14.046    	49.236    
10321.273    	14.293    	49.400    
10623.710    	14.544    	49.584    
10935.008    	14.795    	49.739    
11255.428    	15.046    	49.914    
11585.238    	15.306    	50.100    
11924.711    	15.576    	50.269    
12274.132    	15.853    	50.426    
12633.791    	16.133    	50.571    
13003.989    	16.411    	50.728    
13385.035    	16.700    	50.880    
13777.247    	16.992    	51.036    
14180.951    	17.290    	51.182    
14596.485    	17.596    	51.328    
15024.194    	17.904    	51.478    
15464.437    	18.221    	51.609    
15917.579    	18.545    	51.733    
16384.000    	18.871    	51.852    
16864.088    	19.206    	51.983    
17358.243    	19.535    	52.098    
17866.879    	19.858    	52.227    
18390.418    	20.176    	52.339    
18929.299    	20.501    	52.482    
19483.969    	20.815    	52.596    
20054.893    	21.128    	52.715    
20642.546    	21.425    	52.888    
