* This data was exported from the Dayton Audio Test System: DATS
*
* Piston Diameter = 0 mm
* f(s)= 727.4 Hz
* R(e)= 6.815 Ohms
* Z(max)= 49.69 Ohms
* Q(ms)= 6.122
* Q(es)= 0.9731
* Q(ts)= 0.8397
* V(as)= 0 liters     (0 cubic feet)
* L(e)= 0 mH
* n(0)= 0 %
* SPL= 0 1W/1m
* M(ms)= 0 grams
* C(ms)= 0 mm/N
* BL= 0 
* K(r)= 1.926 
* X(r)= 0.1399 
* K(i)= 0 
* X(i)= 2.039 
*
*
Freq            Impedance       Phase
1.029    	6.813    	-0.635    
1.059    	6.813    	-0.635    
1.091    	6.813    	-0.635    
1.122    	6.813    	-0.635    
1.155    	6.813    	-0.635    
1.189    	6.813    	-0.635    
1.224    	6.813    	-0.635    
1.260    	6.813    	-0.635    
1.297    	6.813    	-0.635    
1.335    	6.785    	-0.523    
1.374    	6.785    	-0.523    
1.414    	6.785    	-0.523    
1.456    	6.785    	-0.523    
1.498    	6.785    	-0.523    
1.542    	6.785    	-0.523    
1.587    	6.785    	-0.523    
1.634    	6.785    	-0.523    
1.682    	6.804    	-0.474    
1.731    	6.804    	-0.474    
1.782    	6.804    	-0.474    
1.834    	6.804    	-0.474    
1.888    	6.804    	-0.474    
1.943    	6.804    	-0.474    
2.000    	6.778    	-0.440    
2.059    	6.778    	-0.440    
2.119    	6.778    	-0.440    
2.181    	6.778    	-0.440    
2.245    	6.778    	-0.440    
2.311    	6.778    	-0.440    
2.378    	6.801    	-0.311    
2.448    	6.801    	-0.311    
2.520    	6.801    	-0.311    
2.594    	6.801    	-0.311    
2.670    	6.803    	-0.163    
2.748    	6.803    	-0.163    
2.828    	6.803    	-0.163    
2.911    	6.803    	-0.163    
2.997    	6.810    	0.060    
3.084    	6.810    	0.060    
3.175    	6.810    	0.060    
3.268    	6.810    	0.060    
3.364    	6.835    	0.213    
3.462    	6.835    	0.213    
3.564    	6.835    	0.213    
3.668    	6.821    	0.342    
3.775    	6.821    	0.342    
3.886    	6.821    	0.342    
4.000    	6.829    	0.490    
4.117    	6.829    	0.490    
4.238    	6.829    	0.490    
4.362    	6.828    	0.582    
4.490    	6.828    	0.582    
4.621    	6.828    	0.582    
4.757    	6.825    	0.677    
4.896    	6.825    	0.677    
5.040    	6.829    	0.761    
5.187    	6.829    	0.761    
5.339    	6.824    	0.821    
5.496    	6.824    	0.821    
5.657    	6.817    	0.872    
5.823    	6.817    	0.872    
5.993    	6.807    	0.902    
6.169    	6.807    	0.902    
6.350    	6.804    	0.938    
6.536    	6.804    	0.938    
6.727    	6.817    	0.985    
6.924    	6.817    	0.985    
7.127    	6.820    	1.034    
7.336    	6.822    	1.093    
7.551    	6.822    	1.093    
7.772    	6.829    	1.146    
8.000    	6.821    	1.194    
8.234    	6.821    	1.194    
8.476    	6.809    	1.243    
8.724    	6.803    	1.278    
8.980    	6.796    	1.307    
9.243    	6.796    	1.307    
9.514    	6.793    	1.331    
9.792    	6.792    	1.345    
10.079    	6.794    	1.368    
10.375    	6.796    	1.398    
10.679    	6.787    	1.418    
10.992    	6.777    	1.430    
11.314    	6.780    	1.440    
11.645    	6.787    	1.458    
11.986    	6.792    	1.483    
12.338    	6.798    	1.498    
12.699    	6.802    	1.511    
13.071    	6.801    	1.533    
13.454    	6.795    	1.557    
13.849    	6.792    	1.579    
14.254    	6.800    	1.607    
14.672    	6.810    	1.656    
15.102    	6.815    	1.707    
15.545    	6.824    	1.746    
16.000    	6.823    	1.829    
16.469    	6.817    	1.910    
16.951    	6.826    	1.992    
17.448    	6.831    	2.074    
17.959    	6.832    	2.151    
18.486    	6.836    	2.230    
19.027    	6.832    	2.305    
19.585    	6.831    	2.407    
20.159    	6.830    	2.484    
20.749    	6.828    	2.548    
21.357    	6.823    	2.641    
21.983    	6.826    	2.724    
22.627    	6.826    	2.796    
23.290    	6.815    	2.859    
23.973    	6.817    	2.923    
24.675    	6.821    	2.981    
25.398    	6.824    	3.027    
26.143    	6.823    	3.074    
26.909    	6.827    	3.142    
27.697    	6.837    	3.227    
28.509    	6.845    	3.294    
29.344    	6.844    	3.410    
30.204    	6.846    	3.560    
31.089    	6.851    	3.669    
32.000    	6.850    	3.772    
32.938    	6.856    	3.907    
33.903    	6.861    	4.052    
34.896    	6.855    	4.186    
35.919    	6.850    	4.312    
36.971    	6.852    	4.418    
38.055    	6.852    	4.498    
39.170    	6.855    	4.585    
40.317    	6.861    	4.671    
41.499    	6.867    	4.754    
42.715    	6.875    	4.840    
43.967    	6.885    	5.035    
45.255    	6.891    	5.249    
46.581    	6.890    	5.460    
47.946    	6.892    	5.615    
49.351    	6.900    	5.834    
50.797    	6.902    	5.980    
52.285    	6.898    	6.050    
53.817    	6.901    	6.175    
55.394    	6.917    	6.315    
57.018    	6.924    	6.490    
58.688    	6.938    	6.683    
60.408    	6.943    	6.956    
62.178    	6.943    	7.170    
64.000    	6.941    	7.347    
65.875    	6.947    	7.502    
67.806    	6.953    	7.636    
69.792    	6.972    	7.794    
71.838    	6.993    	8.075    
73.943    	6.998    	8.333    
76.109    	7.001    	8.598    
78.339    	7.003    	8.828    
80.635    	7.013    	9.015    
82.998    	7.026    	9.183    
85.430    	7.045    	9.426    
87.933    	7.061    	9.776    
90.510    	7.065    	10.066    
93.162    	7.071    	10.237    
95.892    	7.086    	10.460    
98.701    	7.122    	10.672    
101.594    	7.136    	11.024    
104.571    	7.137    	11.361    
107.635    	7.144    	11.598    
110.789    	7.166    	11.814    
114.035    	7.200    	12.120    
117.377    	7.213    	12.491    
120.816    	7.221    	12.767    
124.356    	7.242    	13.000    
128.000    	7.277    	13.334    
131.751    	7.290    	13.727    
135.611    	7.303    	13.980    
139.585    	7.333    	14.219    
143.675    	7.366    	14.661    
147.885    	7.373    	15.026    
152.219    	7.392    	15.239    
156.679    	7.434    	15.692    
161.270    	7.447    	16.128    
165.995    	7.471    	16.365    
170.860    	7.514    	16.818    
175.866    	7.521    	17.238    
181.019    	7.555    	17.523    
186.324    	7.585    	18.026    
191.783    	7.601    	18.414    
197.403    	7.644    	18.826    
203.187    	7.662    	19.372    
209.141    	7.701    	19.730    
215.269    	7.731    	20.357    
221.577    	7.757    	20.786    
228.070    	7.799    	21.401    
234.753    	7.825    	21.896    
241.632    	7.871    	22.552    
248.712    	7.903    	23.122    
256.000    	7.952    	23.877    
263.501    	7.991    	24.506    
271.223    	8.043    	25.311    
279.170    	8.097    	26.021    
287.350    	8.146    	26.896    
295.770    	8.224    	27.723    
304.437    	8.289    	28.562    
313.358    	8.369    	29.553    
322.540    	8.465    	30.546    
331.991    	8.559    	31.541    
341.719    	8.673    	32.643    
351.732    	8.797    	33.745    
362.039    	8.928    	34.865    
372.647    	9.084    	36.049    
383.567    	9.256    	37.335    
394.806    	9.459    	38.586    
406.375    	9.678    	39.906    
418.282    	9.928    	41.214    
430.539    	10.198    	42.603    
443.155    	10.528    	44.039    
456.140    	10.888    	45.407    
469.506    	11.296    	46.858    
483.264    	11.780    	48.354    
497.424    	12.332    	49.799    
512.000    	12.978    	51.204    
527.003    	13.745    	52.628    
542.445    	14.688    	54.065    
558.340    	15.845    	55.275    
574.701    	17.249    	56.195    
591.541    	19.044    	56.865    
608.874    	21.394    	56.904    
626.715    	24.404    	56.002    
645.080    	28.420    	53.725    
663.982    	33.611    	49.595    
683.438    	39.846    	41.683    
703.464    	45.526    	29.889    
724.077    	49.157    	15.249    
745.294    	47.606    	-0.922    
767.133    	41.796    	-13.662    
789.612    	36.023    	-22.069    
812.749    	31.108    	-27.079    
836.565    	26.803    	-30.398    
861.078    	23.583    	-30.903    
886.309    	21.178    	-32.894    
912.280    	18.343    	-28.658    
939.012    	17.805    	-24.463    
966.527    	17.969    	-24.238    
994.849    	17.336    	-25.493    
1024.000    	16.182    	-25.702    
1054.005    	15.629    	-24.319    
1084.890    	14.865    	-24.779    
1116.680    	13.902    	-22.865    
1149.401    	14.066    	-18.651    
1183.081    	13.837    	-19.896    
1217.748    	13.633    	-18.769    
1253.431    	12.946    	-17.063    
1290.159    	12.998    	-14.287    
1327.964    	13.217    	-12.831    
1366.876    	13.414    	-9.095    
1406.929    	14.859    	-10.740    
1448.155    	14.728    	-12.221    
1490.589    	15.401    	-17.182    
1534.266    	14.495    	-15.933    
1579.224    	14.833    	-19.974    
1625.499    	14.309    	-21.600    
1673.129    	13.506    	-22.811    
1722.156    	13.212    	-23.062    
1772.619    	12.614    	-23.784    
1824.561    	12.004    	-23.563    
1878.024    	11.514    	-21.953    
1933.055    	11.108    	-20.673    
1989.697    	11.110    	-18.151    
2048.000    	11.015    	-16.807    
2108.011    	11.109    	-16.157    
2169.780    	11.314    	-15.370    
2233.360    	11.323    	-15.683    
2298.802    	11.246    	-15.784    
2366.162    	11.165    	-16.674    
2435.496    	11.161    	-16.351    
2506.862    	11.074    	-16.885    
2580.318    	10.908    	-17.125    
2655.927    	10.750    	-17.641    
2733.752    	10.497    	-17.766    
2813.857    	10.373    	-17.360    
2896.309    	10.197    	-17.940    
2981.178    	9.899    	-17.955    
3068.533    	9.621    	-17.628    
3158.448    	9.320    	-16.628    
3250.997    	9.135    	-15.114    
3346.259    	9.017    	-14.164    
3444.312    	8.863    	-12.481    
3545.238    	8.926    	-11.041    
3649.121    	8.895    	-10.600    
3756.049    	8.870    	-9.650    
3866.109    	8.854    	-9.111    
3979.395    	8.832    	-8.569    
4096.000    	8.793    	-8.202    
4216.022    	8.738    	-7.923    
4339.561    	8.622    	-7.687    
4466.720    	8.448    	-6.973    
4597.605    	8.300    	-5.722    
4732.325    	8.233    	-4.106    
4870.992    	8.232    	-2.661    
5013.723    	8.263    	-1.422    
5160.637    	8.297    	-0.417    
5311.855    	8.333    	0.515    
5467.504    	8.362    	1.433    
5627.714    	8.393    	2.400    
5792.619    	8.480    	3.384    
5962.355    	8.601    	3.964    
6137.066    	8.691    	3.846    
6316.896    	8.633    	3.682    
6501.995    	8.538    	4.404    
6692.518    	8.518    	5.553    
6888.623    	8.551    	6.623    
7090.476    	8.635    	7.606    
7298.242    	8.757    	8.191    
7512.097    	8.875    	8.151    
7732.218    	8.831    	7.484    
7958.790    	8.593    	8.281    
8192.000    	8.599    	10.180    
8432.044    	8.701    	11.291    
8679.122    	8.780    	12.013    
8933.439    	8.846    	12.731    
9195.209    	8.902    	13.440    
9464.649    	8.952    	14.186    
9741.985    	9.023    	14.994    
10027.447    	9.095    	15.732    
10321.273    	9.199    	16.565    
10623.710    	9.305    	16.994    
10935.008    	9.316    	17.556    
11255.428    	9.411    	18.970    
11585.238    	9.662    	19.721    
11924.711    	9.811    	19.657    
12274.132    	9.919    	19.938    
12633.791    	10.014    	20.034    
13003.989    	10.041    	20.271    
13385.035    	10.028    	20.971    
13777.247    	10.085    	22.553    
14180.951    	10.409    	24.241    
14596.485    	10.817    	24.242    
15024.194    	11.055    	24.110    
15464.437    	11.533    	23.718    
15917.579    	12.116    	20.618    
16384.000    	11.429    	16.357    
16864.088    	10.822    	18.187    
17358.243    	10.728    	19.714    
17866.879    	10.609    	20.636    
18390.418    	10.564    	22.755    
18929.299    	10.702    	24.460    
19483.969    	10.933    	25.796    
20054.893    	11.160    	26.977    
20642.546    	11.509    	28.010    
