* This data was exported from the Dayton Audio Test System: DATS
*
* Piston Diameter = 69 mm
* f(s)= 216.6 Hz
* R(e)= 3.543 Ohms
* Z(max)= 15.71 Ohms
* Q(ms)= 4.011
* Q(es)= 1.168
* Q(ts)= 0.9044
* V(as)= 0.5869 liters     (0.02073 cubic feet)
* L(e)= 0.08628 mH
* n(0)= 0.4873 %
* SPL= 88.98 1W/1m
* M(ms)= 1.806 grams
* C(ms)= 0.299 mm/N
* BL= 2.731 
* K(r)= 0.1469 
* X(r)= 0.3542 
* K(i)= 0.0008378 
* X(i)= 0.8166 
*
*
Freq            Impedance       Phase
1.029    	3.588    	-0.387    
1.059    	3.588    	-0.387    
1.091    	3.588    	-0.387    
1.122    	3.588    	-0.387    
1.155    	3.588    	-0.387    
1.189    	3.588    	-0.387    
1.224    	3.588    	-0.387    
1.260    	3.588    	-0.387    
1.297    	3.588    	-0.387    
1.335    	3.572    	-0.323    
1.374    	3.572    	-0.323    
1.414    	3.572    	-0.323    
1.456    	3.572    	-0.323    
1.498    	3.572    	-0.323    
1.542    	3.572    	-0.323    
1.587    	3.572    	-0.323    
1.634    	3.572    	-0.323    
1.682    	3.556    	-0.268    
1.731    	3.556    	-0.268    
1.782    	3.556    	-0.268    
1.834    	3.556    	-0.268    
1.888    	3.556    	-0.268    
1.943    	3.556    	-0.268    
2.000    	3.545    	-0.160    
2.059    	3.545    	-0.160    
2.119    	3.545    	-0.160    
2.181    	3.545    	-0.160    
2.245    	3.545    	-0.160    
2.311    	3.545    	-0.160    
2.378    	3.541    	-0.032    
2.448    	3.541    	-0.032    
2.520    	3.541    	-0.032    
2.594    	3.541    	-0.032    
2.670    	3.538    	0.166    
2.748    	3.538    	0.166    
2.828    	3.538    	0.166    
2.911    	3.538    	0.166    
2.997    	3.539    	0.341    
3.084    	3.539    	0.341    
3.175    	3.539    	0.341    
3.268    	3.539    	0.341    
3.364    	3.544    	0.590    
3.462    	3.544    	0.590    
3.564    	3.544    	0.590    
3.668    	3.538    	0.820    
3.775    	3.538    	0.820    
3.886    	3.538    	0.820    
4.000    	3.535    	1.039    
4.117    	3.535    	1.039    
4.238    	3.535    	1.039    
4.362    	3.526    	1.235    
4.490    	3.526    	1.235    
4.621    	3.526    	1.235    
4.757    	3.525    	1.365    
4.896    	3.525    	1.365    
5.040    	3.522    	1.482    
5.187    	3.522    	1.482    
5.339    	3.519    	1.579    
5.496    	3.519    	1.579    
5.657    	3.515    	1.642    
5.823    	3.515    	1.642    
5.993    	3.511    	1.703    
6.169    	3.511    	1.703    
6.350    	3.514    	1.752    
6.536    	3.514    	1.752    
6.727    	3.522    	1.803    
6.924    	3.522    	1.803    
7.127    	3.529    	1.880    
7.336    	3.533    	1.970    
7.551    	3.533    	1.970    
7.772    	3.533    	2.065    
8.000    	3.532    	2.161    
8.234    	3.532    	2.161    
8.476    	3.531    	2.251    
8.724    	3.529    	2.351    
8.980    	3.526    	2.455    
9.243    	3.526    	2.455    
9.514    	3.522    	2.546    
9.792    	3.521    	2.621    
10.079    	3.522    	2.690    
10.375    	3.523    	2.764    
10.679    	3.521    	2.837    
10.992    	3.518    	2.892    
11.314    	3.518    	2.938    
11.645    	3.521    	2.994    
11.986    	3.525    	3.055    
12.338    	3.529    	3.116    
12.699    	3.532    	3.181    
13.071    	3.535    	3.254    
13.454    	3.535    	3.336    
13.849    	3.534    	3.420    
14.254    	3.536    	3.503    
14.672    	3.540    	3.632    
15.102    	3.544    	3.752    
15.545    	3.546    	3.838    
16.000    	3.549    	3.981    
16.469    	3.552    	4.122    
16.951    	3.555    	4.271    
17.448    	3.556    	4.425    
17.959    	3.556    	4.559    
18.486    	3.559    	4.699    
19.027    	3.561    	4.837    
19.585    	3.560    	4.997    
20.159    	3.561    	5.114    
20.749    	3.564    	5.228    
21.357    	3.567    	5.394    
21.983    	3.569    	5.579    
22.627    	3.570    	5.765    
23.290    	3.570    	5.925    
23.973    	3.572    	6.063    
24.675    	3.576    	6.218    
25.398    	3.577    	6.384    
26.143    	3.579    	6.546    
26.909    	3.581    	6.715    
27.697    	3.584    	6.863    
28.509    	3.590    	6.996    
29.344    	3.595    	7.220    
30.204    	3.600    	7.486    
31.089    	3.603    	7.695    
32.000    	3.609    	7.921    
32.938    	3.611    	8.166    
33.903    	3.616    	8.427    
34.896    	3.623    	8.704    
35.919    	3.625    	8.979    
36.971    	3.631    	9.223    
38.055    	3.634    	9.442    
39.170    	3.634    	9.684    
40.317    	3.640    	9.916    
41.499    	3.648    	10.151    
42.715    	3.657    	10.367    
43.967    	3.668    	10.731    
45.255    	3.679    	11.096    
46.581    	3.687    	11.422    
47.946    	3.692    	11.747    
49.351    	3.712    	12.180    
50.797    	3.718    	12.515    
52.285    	3.718    	12.852    
53.817    	3.731    	13.141    
55.394    	3.744    	13.544    
57.018    	3.754    	13.863    
58.688    	3.767    	14.210    
60.408    	3.785    	14.707    
62.178    	3.797    	15.195    
64.000    	3.812    	15.646    
65.875    	3.825    	16.107    
67.806    	3.838    	16.525    
69.792    	3.860    	16.930    
71.838    	3.885    	17.437    
73.943    	3.904    	17.967    
76.109    	3.927    	18.526    
78.339    	3.952    	19.096    
80.635    	3.979    	19.724    
82.998    	4.004    	20.252    
85.430    	4.036    	20.771    
87.933    	4.076    	21.447    
90.510    	4.115    	22.165    
93.162    	4.144    	22.820    
95.892    	4.186    	23.526    
98.701    	4.237    	24.200    
101.594    	4.286    	24.973    
104.571    	4.348    	25.713    
107.635    	4.407    	26.597    
110.789    	4.465    	27.401    
114.035    	4.545    	28.134    
117.377    	4.627    	29.026    
120.816    	4.720    	29.998    
124.356    	4.823    	30.957    
128.000    	4.934    	31.857    
131.751    	5.071    	32.808    
135.611    	5.217    	33.876    
139.585    	5.377    	34.783    
143.675    	5.586    	35.800    
147.885    	5.816    	36.800    
152.219    	6.067    	37.712    
156.679    	6.381    	38.545    
161.270    	6.777    	39.408    
165.995    	7.210    	39.975    
170.860    	7.769    	40.273    
175.866    	8.459    	40.127    
181.019    	9.284    	39.433    
186.324    	10.309    	37.567    
191.783    	11.560    	34.180    
197.403    	12.891    	29.002    
203.187    	14.136    	22.226    
209.141    	15.129    	13.984    
215.269    	15.662    	4.182    
221.577    	15.492    	-5.905    
228.070    	14.654    	-15.029    
234.753    	13.500    	-22.353    
241.632    	12.192    	-28.038    
248.712    	10.983    	-32.056    
256.000    	9.917    	-34.565    
263.501    	9.039    	-36.065    
271.223    	8.313    	-36.916    
279.170    	7.688    	-37.299    
287.350    	7.121    	-37.098    
295.770    	6.653    	-36.342    
304.437    	6.258    	-35.301    
313.358    	5.919    	-34.003    
322.540    	5.629    	-32.562    
331.991    	5.379    	-31.110    
341.719    	5.169    	-29.653    
351.732    	4.986    	-28.255    
362.039    	4.830    	-26.783    
372.647    	4.696    	-25.250    
383.567    	4.582    	-23.800    
394.806    	4.477    	-22.293    
406.375    	4.392    	-20.777    
418.282    	4.321    	-19.328    
430.539    	4.268    	-17.981    
443.155    	4.221    	-16.719    
456.140    	4.179    	-15.595    
469.506    	4.140    	-14.458    
483.264    	4.102    	-13.372    
497.424    	4.066    	-12.361    
512.000    	4.033    	-11.225    
527.003    	4.008    	-10.107    
542.445    	3.987    	-9.055    
558.340    	3.972    	-8.031    
574.701    	3.961    	-7.021    
591.541    	3.949    	-6.083    
608.874    	3.941    	-5.115    
626.715    	3.937    	-4.204    
645.080    	3.935    	-3.316    
663.982    	3.933    	-2.406    
683.438    	3.938    	-1.535    
703.464    	3.940    	-0.759    
724.077    	3.947    	0.058    
745.294    	3.952    	0.835    
767.133    	3.963    	1.603    
789.612    	3.970    	2.348    
812.749    	3.983    	3.068    
836.565    	3.998    	3.737    
861.078    	4.009    	4.410    
886.309    	4.021    	5.038    
912.280    	4.040    	5.670    
939.012    	4.058    	6.194    
966.527    	4.065    	6.645    
994.849    	4.071    	7.317    
1024.000    	4.064    	7.920    
1054.005    	4.071    	8.666    
1084.890    	4.082    	9.404    
1116.680    	4.096    	10.127    
1149.401    	4.115    	10.911    
1183.081    	4.133    	11.667    
1217.748    	4.160    	12.376    
1253.431    	4.182    	13.127    
1290.159    	4.208    	13.837    
1327.964    	4.240    	14.598    
1366.876    	4.275    	15.371    
1406.929    	4.320    	16.159    
1448.155    	4.378    	16.826    
1490.589    	4.452    	17.058    
1534.266    	4.474    	16.941    
1579.224    	4.465    	17.417    
1625.499    	4.475    	18.183    
1673.129    	4.511    	18.947    
1722.156    	4.550    	19.615    
1772.619    	4.594    	20.222    
1824.561    	4.635    	20.908    
1878.024    	4.677    	21.530    
1933.055    	4.732    	22.105    
1989.697    	4.787    	22.714    
2048.000    	4.832    	23.213    
2108.011    	4.891    	23.745    
2169.780    	4.948    	24.241    
2233.360    	5.014    	24.831    
2298.802    	5.093    	25.235    
2366.162    	5.176    	25.397    
2435.496    	5.234    	25.205    
2506.862    	5.235    	25.199    
2580.318    	5.235    	25.721    
2655.927    	5.261    	26.499    
2733.752    	5.317    	27.259    
2813.857    	5.384    	27.946    
2896.309    	5.455    	28.536    
2981.178    	5.531    	29.063    
3068.533    	5.611    	29.316    
3158.448    	5.670    	29.550    
3250.997    	5.724    	29.887    
3346.259    	5.777    	30.375    
3444.312    	5.842    	30.943    
3545.238    	5.920    	31.235    
3649.121    	5.964    	31.635    
3756.049    	6.025    	32.273    
3866.109    	6.105    	32.877    
3979.395    	6.189    	33.429    
4096.000    	6.279    	33.912    
4216.022    	6.373    	34.319    
4339.561    	6.463    	34.665    
4466.720    	6.550    	35.046    
4597.605    	6.637    	35.406    
4732.325    	6.726    	35.822    
4870.992    	6.815    	36.190    
5013.723    	6.904    	36.632    
5160.637    	7.001    	37.065    
5311.855    	7.103    	37.508    
5467.504    	7.212    	37.961    
5627.714    	7.326    	38.395    
5792.619    	7.449    	38.763    
5962.355    	7.575    	39.127    
6137.066    	7.708    	39.369    
6316.896    	7.834    	39.452    
6501.995    	7.947    	39.646    
6692.518    	8.064    	39.851    
6888.623    	8.169    	39.898    
7090.476    	8.233    	40.100    
7298.242    	8.316    	40.661    
7512.097    	8.440    	41.214    
7732.218    	8.579    	41.701    
7958.790    	8.729    	42.130    
8192.000    	8.882    	42.504    
8432.044    	9.040    	42.840    
8679.122    	9.205    	43.104    
8933.439    	9.372    	43.342    
9195.209    	9.558    	43.504    
9464.649    	9.708    	43.375    
9741.985    	9.802    	43.534    
10027.447    	9.930    	43.967    
10321.273    	10.097    	44.311    
10623.710    	10.254    	44.601    
10935.008    	10.415    	44.925    
11255.428    	10.591    	45.266    
11585.238    	10.783    	45.595    
11924.711    	10.983    	45.869    
12274.132    	11.187    	46.073    
12633.791    	11.391    	46.252    
13003.989    	11.590    	46.392    
13385.035    	11.774    	46.559    
13777.247    	11.987    	46.847    
14180.951    	12.220    	47.048    
14596.485    	12.456    	47.184    
15024.194    	12.698    	47.200    
15464.437    	12.893    	47.307    
15917.579    	13.192    	47.601    
16384.000    	13.497    	47.118    
16864.088    	13.661    	46.809    
17358.243    	13.783    	46.369    
17866.879    	13.825    	46.573    
18390.418    	13.920    	46.891    
18929.299    	14.050    	47.431    
19483.969    	14.233    	47.864    
20054.893    	14.411    	48.238    
20642.546    	14.581    	48.611    
