Freq[Hz]     dBSPL  Phase[Deg]
5.00000     82.176    41.106
5.07273     82.207    41.071
5.14651     82.252    41.026
5.22137     82.312    40.967
5.29732     82.374    40.904
5.37437     82.438    40.836
5.45254     82.501    40.767
5.53185     82.565    40.698
5.61231     82.628    40.629
5.69394     82.692    40.558
5.77676     82.755    40.487
5.86079     82.818    40.414
5.94604     82.882    40.341
6.03252     82.945    40.267
6.12027     83.009    40.192
6.20929     83.072    40.117
6.29961     83.136    40.040
6.39124     83.199    39.963
6.48420     83.263    39.884
6.57851     83.326    39.805
6.67420     83.390    39.725
6.77128     83.453    39.644
6.86977     83.517    39.562
6.96969     83.580    39.479
7.07107     83.643    39.395
7.17392     83.707    39.311
7.27827     83.770    39.225
7.38413     83.834    39.139
7.49154     83.897    39.052
7.60050     83.961    38.964
7.71105     84.024    38.876
7.82321     84.088    38.787
7.93701     84.151    38.697
8.05245     84.215    38.606
8.16958     84.278    38.515
8.28841     84.342    38.423
8.40896     84.405    38.331
8.53128     84.469    38.239
8.65537     84.532    38.147
8.78126     84.595    38.054
8.90899     84.659    37.962
9.03857     84.722    37.870
9.17004     84.786    37.779
9.30342     84.849    37.688
9.43874     84.913    37.599
9.57603     84.976    37.512
9.71532     85.040    37.427
9.85663     85.103    37.344
10.0000     85.167    37.267
10.1455     85.230    37.194
10.2930     85.294    37.129
10.4427     85.357    37.075
10.5946     85.421    37.038
10.7487     85.484    37.029
10.9051     85.548    37.061
11.0637     85.616    37.131
11.2246     85.703    37.206
11.3879     85.827    37.205
11.5535     85.969    37.073
11.7216     86.107    36.809
11.8921     86.217    36.436
12.0650     86.292    36.016
12.2405     86.345    35.624
12.4186     86.395    35.297
12.5992     86.448    35.032
12.7825     86.502    34.813
12.9684     86.555    34.630
13.1570     86.609    34.481
13.3484     86.662    34.375
13.5426     86.716    34.324
13.7395     86.771    34.342
13.9394     86.838    34.425
14.1421     86.927    34.534
14.3478     87.052    34.598
14.5565     87.216    34.521
14.7683     87.395    34.246
14.9831     87.562    33.776
15.2010     87.687    33.177
15.4221     87.764    32.560
15.6464     87.809    32.025
15.8740     87.847    31.625
16.1049     87.896    31.374
16.3392     87.968    31.243
16.5768     88.069    31.158
16.8179     88.199    31.041
17.0626     88.384    30.770
17.3107     88.609    30.211
17.5625     88.846    29.300
17.8180     89.063    28.037
18.0771     89.193    26.534
18.3401     89.227    24.996
18.6068     89.174    23.612
18.8775     89.058    22.557
19.1521     88.935    21.937
19.4306     88.854    21.706
19.7133     88.842    21.723
20.0000     88.916    21.784
20.2909     89.076    21.640
20.5860     89.296    21.083
20.8855     89.539    20.007
21.1893     89.745    18.437
21.4975     89.845    16.544
21.8102     89.814    14.571
22.1274     89.656    12.764
22.4492     89.407    11.370
22.7758     89.128    10.549
23.1071     88.872    10.314
23.4432     88.685    10.533
23.7841     88.589    10.995
24.1301     88.579    11.493
24.4811     88.631    11.852
24.8372     88.698    12.000
25.1984     88.771    11.949
25.5649     88.828    11.759
25.9368     88.879    11.488
26.3141     88.932    11.138
26.6968     88.992    10.703
27.0851     89.063    10.168
27.4791     89.126     9.517
27.8788     89.169     8.768
28.2843     89.184     7.956
28.6957     89.175     7.137
29.1131     89.146     6.358
29.5365     89.102     5.646
29.9661     89.049     5.013
30.4020     88.994     4.455
30.8442     88.947     3.951
31.2929     88.908     3.465
31.7480     88.867     2.989
32.2098     88.820     2.523
32.6783     88.762     2.078
33.1536     88.689     1.683
33.6359     88.618     1.359
34.1251     88.543     1.116
34.6215     88.472     0.959
35.1250     88.399     0.889
35.6359     88.341     0.895
36.1543     88.300     0.946
36.6802     88.279     1.016
37.2137     88.277     1.068
37.7550     88.287     1.065
38.3041     88.307     0.993
38.8613     88.335     0.837
39.4265     88.366     0.589
40.0000     88.393     0.253
40.5818     88.412    -0.162
41.1721     88.422    -0.647
41.7710     88.424    -1.197
42.3785     88.418    -1.800
42.9949     88.391    -2.433
43.6203     88.334    -3.047
44.2548     88.256    -3.608
44.8985     88.164    -4.096
45.5515     88.060    -4.472
46.2141     87.965    -4.751
46.8863     87.870    -4.971
47.5683     87.763    -5.104
48.2602     87.654    -5.118
48.9621     87.531    -4.988
49.6743     87.404    -4.672
50.3968     87.310    -4.190
51.1299     87.264    -3.628
51.8736     87.272    -3.093
52.6281     87.320    -2.695
53.3936     87.382    -2.492
54.1702     87.436    -2.474
54.9581     87.473    -2.600
55.7575     87.492    -2.819
56.5685     87.495    -3.090
57.3914     87.484    -3.375
58.2261     87.458    -3.644
59.0730     87.419    -3.874
59.9323     87.367    -4.039
60.8040     87.310    -4.124
61.6884     87.260    -4.134
62.5857     87.224    -4.105
63.4960     87.201    -4.073
64.4196     87.190    -4.068
65.3566     87.174    -4.092
66.3073     87.141    -4.111
67.2717     87.105    -4.105
68.2502     87.068    -4.066
69.2429     87.045    -3.997
70.2501     87.038    -3.938
71.2719     87.037    -3.923
72.3086     87.035    -3.961
73.3603     87.026    -4.037
74.4274     87.001    -4.111
75.5099     86.964    -4.148
76.6083     86.927    -4.142
77.7226     86.898    -4.095
78.8531     86.885    -4.031
80.0000     86.883    -3.991
81.1636     86.883    -3.995
82.3442     86.883    -4.055
83.5419     86.882    -4.171
84.7570     86.880    -4.346
85.9899     86.863    -4.557
87.2406     86.826    -4.765
88.5096     86.774    -4.944
89.7970     86.705    -5.060
91.1031     86.645    -5.107
92.4282     86.590    -5.116
93.7726     86.535    -5.091
95.1366     86.483    -5.048
96.5204     86.418    -4.983
97.9243     86.343    -4.858
99.3486     86.267    -4.652
100.794     86.190    -4.356
102.260     86.115    -3.954
103.747     86.052    -3.452
105.256     86.012    -2.888
106.787     85.994    -2.305
108.340     86.001    -1.740
109.916     86.025    -1.234
111.515     86.054    -0.801
113.137     86.083    -0.432
114.783     86.112    -0.111
116.452     86.142     0.179
118.146     86.171     0.448
119.865     86.203     0.697
121.608     86.244     0.916
123.377     86.296     1.075
125.171     86.348     1.165
126.992     86.402     1.174
128.839     86.454     1.083
130.713     86.487     0.921
132.615     86.497     0.747
134.543     86.484     0.604
136.500     86.448     0.542
138.486     86.398     0.624
140.500     86.359     0.864
142.544     86.345     1.207
144.617     86.358     1.586
146.721     86.410     1.927
148.855     86.498     2.126
151.020     86.585     2.143
153.217     86.657     2.012
155.445     86.706     1.769
157.706     86.724     1.471
160.000     86.725     1.183
162.327     86.710     0.946
164.688     86.677     0.798
167.084     86.640     0.744
169.514     86.604     0.776
171.980     86.581     0.886
174.481     86.575     1.035
177.019     86.574     1.198
179.594     86.574     1.375
182.206     86.576     1.572
184.856     86.585     1.790
187.545     86.612     2.002
190.273     86.656     2.167
193.041     86.717     2.250
195.849     86.784     2.223
198.697     86.833     2.103
201.587     86.866     1.933
204.520     86.880     1.752
207.494     86.882     1.600
210.512     86.883     1.503
213.574     86.883     1.460
216.681     86.886     1.466
219.833     86.902     1.495
223.030     86.936     1.506
226.274     86.975     1.481
229.565     87.025     1.397
232.905     87.077     1.223
236.292     87.120     0.980
239.729     87.158     0.695
243.216     87.184     0.377
246.754     87.202     0.031
250.343     87.229    -0.365
253.984     87.265    -0.845
257.678     87.293    -1.415
261.426     87.291    -2.051
265.229     87.243    -2.687
269.087     87.166    -3.251
273.001     87.072    -3.701
276.972     86.968    -3.993
281.000     86.875    -4.140
285.088     86.783    -4.181
289.234     86.695    -4.119
293.441     86.637    -4.005
297.709     86.595    -3.898
302.040     86.561    -3.811
306.433     86.524    -3.749
310.890     86.485    -3.712
315.412     86.435    -3.678
320.000     86.382    -3.615
324.655     86.337    -3.528
329.377     86.289    -3.431
334.168     86.236    -3.307
339.028     86.189    -3.162
343.959     86.142    -3.012
348.962     86.088    -2.834
354.038     86.034    -2.610
359.188     85.972    -2.330
364.412     85.905    -1.967
369.713     85.855    -1.531
375.090     85.820    -1.055
380.546     85.805    -0.568
386.081     85.803    -0.105
391.697     85.802     0.322
397.394     85.802     0.722
403.175     85.802     1.107
409.039     85.802     1.493
414.989     85.802     1.894
421.025     85.803     2.322
427.149     85.805     2.789
433.362     85.818     3.288
439.665     85.849     3.792
446.060     85.897     4.271
452.548     85.964     4.694
459.131     86.036     5.038
465.809     86.109     5.302
472.584     86.183     5.496
479.458     86.256     5.627
486.432     86.330     5.700
493.507     86.403     5.714
500.686     86.477     5.660
507.968     86.549     5.535
515.357     86.620     5.339
522.853     86.673     5.092
530.458     86.712     4.820
538.174     86.746     4.515
546.002     86.783     4.160
553.943     86.818     3.751
562.001     86.839     3.292
570.175     86.826     2.813
578.469     86.780     2.367
586.883     86.712     2.012
595.419     86.640     1.776
604.080     86.561     1.668
612.866     86.480     1.690
621.780     86.402     1.826
630.824     86.337     2.047
640.000     86.293     2.318
649.309     86.265     2.602
658.753     86.235     2.894
668.335     86.197     3.211
678.056     86.160     3.563
687.919     86.128     3.960
697.925     86.114     4.395
708.077     86.112     4.835
718.376     86.111     5.269
728.825     86.111     5.705
739.426     86.111     6.162
750.181     86.112     6.659
761.093     86.114     7.214
772.163     86.128     7.828
783.394     86.163     8.479
794.789     86.215     9.146
806.349     86.296     9.789
818.078     86.400    10.347
829.977     86.522    10.790
842.050     86.659    11.094
854.298     86.796    11.256
866.724     86.916    11.315
879.330     87.026    11.308
892.120     87.136    11.241
905.097     87.255    11.100
918.262     87.389    10.848
931.618     87.528    10.439
945.169     87.649     9.876
958.917     87.735     9.215
972.864     87.787     8.508
987.015     87.808     7.806
1001.37     87.825     7.122
1015.94     87.844     6.434
1030.71     87.845     5.743
1045.71     87.828     5.057
1060.92     87.766     4.417
1076.35     87.670     3.907
1092.00     87.560     3.572
1107.89     87.448     3.419
1124.00     87.340     3.456
1140.35     87.242     3.666
1156.94     87.157     4.012
1173.77     87.090     4.462
1190.84     87.045     5.000
1208.16     87.015     5.615
1225.73     87.000     6.289
1243.56     87.006     6.991
1261.65     87.039     7.702
1280.00     87.115     8.368
1298.62     87.205     8.944
1317.51     87.300     9.441
1336.67     87.407     9.846
1356.11     87.520    10.160
1375.84     87.650    10.388
1395.85     87.794    10.497
1416.15     87.941    10.468
1436.75     88.088    10.298
1457.65     88.233     9.988
1478.85     88.367     9.556
1500.36     88.483     9.023
1522.19     88.591     8.395
1544.33     88.689     7.670
1566.79     88.773     6.867
1589.58     88.837     6.003
1612.70     88.873     5.095
1636.16     88.878     4.181
1659.95     88.856     3.318
1684.10     88.815     2.533
1708.60     88.756     1.842
1733.45     88.683     1.264
1758.66     88.608     0.802
1784.24     88.517     0.478
1810.19     88.425     0.307
1836.52     88.333     0.288
1863.24     88.245     0.440
1890.34     88.188     0.730
1917.83     88.162     1.084
1945.73     88.173     1.442
1974.03     88.207     1.753
2002.74     88.256     1.990
2031.87     88.310     2.138
2061.43     88.365     2.211
2091.41     88.433     2.218
2121.83     88.505     2.147
2152.69     88.578     1.993
2184.01     88.652     1.753
2215.77     88.724     1.428
2248.00     88.791     1.029
2280.70     88.841     0.582
2313.87     88.879     0.113
2347.53     88.913    -0.384
2381.68     88.953    -0.921
2416.32     88.990    -1.505
2451.46     89.023    -2.146
2487.12     89.037    -2.846
2523.30     89.024    -3.562
2560.00     88.990    -4.248
2597.24     88.951    -4.900
2635.01     88.898    -5.510
2673.34     88.833    -6.046
2712.23     88.758    -6.501
2751.68     88.670    -6.866
2791.70     88.570    -7.101
2832.31     88.473    -7.180
2873.50     88.390    -7.126
2915.30     88.324    -6.971
2957.70     88.288    -6.756
3000.72     88.283    -6.546
3044.37     88.305    -6.411
3088.65     88.341    -6.391
3133.58     88.378    -6.476
3179.16     88.410    -6.654
3225.40     88.428    -6.908
3272.31     88.450    -7.238
3319.91     88.486    -7.681
3368.20     88.520    -8.257
3417.19     88.537    -8.964
3466.89     88.503    -9.752
3517.32     88.417   -10.523
3568.48     88.284   -11.169
3620.39     88.113   -11.587
3673.05     87.931   -11.726
3726.47     87.753   -11.592
3780.67     87.601   -11.214
3835.67     87.483   -10.652
3891.46     87.391    -9.957
3948.06     87.319    -9.153
4005.49     87.271    -8.260
4063.75     87.266    -7.327
4122.86     87.315    -6.437
4182.82     87.413    -5.680
4243.66     87.545    -5.138
4305.39     87.690    -4.865
4368.01     87.835    -4.868
4431.55     87.975    -5.128
4496.01     88.081    -5.589
4561.40     88.134    -6.140
4627.75     88.150    -6.707
4695.06     88.119    -7.210
4763.35     88.069    -7.562
4832.64     88.027    -7.769
4902.93     87.976    -7.846
4974.24     87.924    -7.770
5046.60     87.881    -7.554
5120.00     87.843    -7.198
5194.47     87.821    -6.681
5270.03     87.826    -6.019
5346.68     87.874    -5.272
5424.45     87.986    -4.554
5503.35     88.169    -4.020
5583.40     88.411    -3.807
5664.61     88.676    -4.006
5747.01     88.911    -4.590
5830.60     89.094    -5.448
5915.41     89.224    -6.467
6001.45     89.297    -7.521
6088.74     89.355    -8.538
6177.30     89.408    -9.525
6267.15     89.447   -10.474
6358.31     89.484   -11.389
6450.80     89.502   -12.284
6544.62     89.506   -13.126
6639.82     89.506   -13.892
6736.40     89.509   -14.583
6834.38     89.523   -15.223
6933.79     89.567   -15.881
7034.64     89.644   -16.648
7136.96     89.747   -17.609
7240.77     89.854   -18.824
7346.09     89.941   -20.311
7452.94     89.981   -22.019
7561.35     89.955   -23.829
7671.33     89.855   -25.604
7782.91     89.675   -27.190
7896.12     89.442   -28.447
8010.97     89.194   -29.308
8127.49     88.981   -29.813
8245.71     88.837   -30.098
8365.65     88.762   -30.341
8487.33     88.739   -30.713
8610.78     88.734   -31.326
8736.03     88.728   -32.210
8863.09     88.695   -33.323
8992.01     88.602   -34.549
9122.80     88.441   -35.752
9255.50     88.210   -36.791
9390.12     87.934   -37.528
9526.70     87.656   -37.896
9665.27     87.407   -37.937
9805.86     87.211   -37.760
9948.49     87.069   -37.497
10093.2     86.972   -37.263
10240.0     86.895   -37.139
10388.9     86.819   -37.137
10540.1     86.741   -37.232
10693.4     86.645   -37.368
10848.9     86.533   -37.489
11006.7     86.405   -37.554
11166.8     86.279   -37.537
11329.2     86.168   -37.446
11494.0     86.061   -37.282
11661.2     85.969   -37.065
11830.8     85.891   -36.845
12002.9     85.831   -36.640
12177.5     85.792   -36.467
12354.6     85.756   -36.341
12534.3     85.718   -36.261
12716.6     85.681   -36.222
12901.6     85.657   -36.218
13089.2     85.650   -36.277
13279.6     85.648   -36.433
13472.8     85.647   -36.698
13668.8     85.638   -37.067
13867.6     85.613   -37.505
14069.3     85.570   -37.975
14273.9     85.511   -38.454
14481.5     85.443   -38.921
14692.2     85.387   -39.393
14905.9     85.329   -39.891
15122.7     85.257   -40.396
15342.7     85.179   -40.917
15565.8     85.089   -41.462
15792.2     84.998   -42.021
16021.9     84.922   -42.626
16255.0     84.830   -43.298
16491.4     84.711   -44.003
16731.3     84.557   -44.697
16974.7     84.377   -45.338
17221.6     84.181   -45.890
17472.1     83.971   -46.323
17726.2     83.752   -46.629
17984.0     83.519   -46.815
18245.6     83.273   -46.850
18511.0     83.020   -46.690
18780.2     82.763   -46.317
19053.4     82.511   -45.724
19330.5     82.282   -44.928
19611.7     82.092   -43.978
19897.0     81.949   -42.959
20186.4     81.838   -41.954
20480.0     81.747   -40.990
20777.9     81.674   -40.088
21080.1     81.600   -39.234
21386.7     81.542   -38.418
21697.8     81.487   -37.632
22013.4     81.432   -36.823
22333.6     81.380   -35.968
22658.4     81.327   -35.043
22988.0     81.314   -34.069
23322.4     81.354   -33.152
23661.6     81.447   -32.404
24005.8     81.577   -31.942
24355.0     81.709   -31.819
24709.2     81.816   -31.997
25068.6     81.880   -32.394
25433.2     81.893   -32.907
25803.2     81.862   -33.438
26178.5     81.797   -33.911
26559.3     81.704   -34.263
26945.6     81.596   -34.460
27337.5     81.484   -34.513
27735.2     81.378   -34.438
28138.6     81.287   -34.253
28547.9     81.213   -34.003
28963.1     81.139   -33.707
29384.4     81.084   -33.386
29811.8     81.044   -33.079
30245.4     81.024   -32.812
30685.3     81.019   -32.629
31131.7     81.018   -32.567
31584.5     81.016   -32.636
32043.9     81.003   -32.828
32510.0     80.962   -33.101
32982.8     80.886   -33.386
33462.6     80.768   -33.598
33949.3     80.608   -33.623
34443.1     80.428   -33.368
34944.1     80.253   -32.802
35452.4     80.112   -31.959
35968.0     80.044   -30.964
36491.2     80.055   -30.006
37022.0     80.117   -29.228
37560.5     80.204   -28.711
38106.8     80.287   -28.462
38661.1     80.341   -28.403
39223.4     80.377   -28.422
39793.9     80.396   -28.486
