Freq[Hz]     dBSPL  Phase[Deg]
5.00000     89.357   -26.215
5.07273     89.336   -26.181
5.14651     89.306   -26.136
5.22137     89.266   -26.077
5.29732     89.224   -26.012
5.37437     89.181   -25.941
5.45254     89.139   -25.869
5.53185     89.096   -25.796
5.61231     89.053   -25.722
5.69394     89.011   -25.647
5.77676     88.968   -25.570
5.86079     88.926   -25.492
5.94604     88.883   -25.413
6.03252     88.840   -25.333
6.12027     88.798   -25.252
6.20929     88.755   -25.169
6.29961     88.712   -25.084
6.39124     88.670   -24.998
6.48420     88.627   -24.911
6.57851     88.584   -24.822
6.67420     88.542   -24.732
6.77128     88.499   -24.640
6.86977     88.456   -24.546
6.96969     88.414   -24.451
7.07107     88.371   -24.354
7.17392     88.329   -24.255
7.27827     88.286   -24.154
7.38413     88.243   -24.052
7.49154     88.201   -23.947
7.60050     88.158   -23.841
7.71105     88.115   -23.732
7.82321     88.073   -23.622
7.93701     88.030   -23.509
8.05245     87.987   -23.394
8.16958     87.945   -23.276
8.28841     87.902   -23.157
8.40896     87.859   -23.035
8.53128     87.817   -22.910
8.65537     87.774   -22.783
8.78126     87.732   -22.652
8.90899     87.689   -22.520
9.03857     87.646   -22.384
9.17004     87.604   -22.245
9.30342     87.561   -22.103
9.43874     87.518   -21.958
9.57603     87.476   -21.809
9.71532     87.433   -21.657
9.85663     87.390   -21.501
10.0000     87.348   -21.341
10.1455     87.305   -21.177
10.2930     87.263   -21.009
10.4427     87.220   -20.837
10.5946     87.177   -20.659
10.7487     87.135   -20.477
10.9051     87.092   -20.289
11.0637     87.049   -20.096
11.2246     87.007   -19.897
11.3879     86.964   -19.692
11.5535     86.921   -19.480
11.7216     86.879   -19.260
11.8921     86.836   -19.033
12.0650     86.793   -18.797
12.2405     86.751   -18.552
12.4186     86.708   -18.297
12.5992     86.666   -18.030
12.7825     86.623   -17.751
12.9684     86.580   -17.458
13.1570     86.538   -17.149
13.3484     86.495   -16.821
13.5426     86.452   -16.471
13.7395     86.410   -16.094
13.9394     86.367   -15.684
14.1421     86.324   -15.229
14.3478     86.282   -14.709
14.5565     86.240   -14.093
14.7683     86.202   -13.360
14.9831     86.189   -12.530
15.2010     86.234   -11.706
15.4221     86.341   -11.035
15.6464     86.495   -10.652
15.8740     86.665   -10.655
16.1049     86.809   -11.063
16.3392     86.887   -11.755
16.5768     86.880   -12.549
16.8179     86.774   -13.238
17.0626     86.569   -13.578
17.3107     86.331   -13.404
17.5625     86.102   -12.666
17.8180     85.957   -11.443
18.0771     85.935   -10.007
18.3401     85.998    -8.617
18.6068     86.156    -7.503
18.8775     86.377    -6.891
19.1521     86.582    -6.778
19.4306     86.760    -7.062
19.7133     86.845    -7.609
20.0000     86.822    -8.161
20.2909     86.720    -8.462
20.5860     86.568    -8.326
20.8855     86.429    -7.673
21.1893     86.370    -6.624
21.4975     86.431    -5.430
21.8102     86.611    -4.393
22.1274     86.868    -3.777
22.4492     87.151    -3.717
22.7758     87.418    -4.204
23.1071     87.625    -5.106
23.4432     87.738    -6.219
23.7841     87.751    -7.340
24.1301     87.689    -8.299
24.4811     87.605    -8.999
24.8372     87.541    -9.449
25.1984     87.510    -9.732
25.5649     87.502    -9.947
25.9368     87.502   -10.169
26.3141     87.508   -10.430
26.6968     87.528   -10.763
27.0851     87.551   -11.185
27.4791     87.558   -11.680
27.8788     87.550   -12.233
28.2843     87.514   -12.805
28.6957     87.447   -13.312
29.1131     87.361   -13.693
29.5365     87.264   -13.929
29.9661     87.179   -14.034
30.4020     87.123   -14.060
30.8442     87.101   -14.086
31.2929     87.096   -14.187
31.7480     87.085   -14.385
32.2098     87.059   -14.654
32.6783     87.014   -14.955
33.1536     86.952   -15.248
33.6359     86.879   -15.492
34.1251     86.790   -15.645
34.6215     86.688   -15.669
35.1250     86.586   -15.554
35.6359     86.501   -15.324
36.1543     86.448   -15.025
36.6802     86.428   -14.724
37.2137     86.425   -14.479
37.7550     86.425   -14.304
38.3041     86.425   -14.192
38.8613     86.428   -14.133
39.4265     86.443   -14.147
40.0000     86.473   -14.281
40.5818     86.505   -14.558
41.1721     86.530   -14.987
41.7710     86.521   -15.545
42.3785     86.464   -16.149
42.9949     86.367   -16.706
43.6203     86.229   -17.127
44.2548     86.054   -17.301
44.8985     85.865   -17.168
45.5515     85.697   -16.753
46.2141     85.573   -16.129
46.8863     85.515   -15.414
47.5683     85.507   -14.749
48.2602     85.519   -14.213
48.9621     85.536   -13.824
49.6743     85.554   -13.569
50.3968     85.572   -13.429
51.1299     85.587   -13.392
51.8736     85.589   -13.436
52.6281     85.570   -13.521
53.3936     85.533   -13.611
54.1702     85.474   -13.664
54.9581     85.403   -13.631
55.7575     85.326   -13.491
56.5685     85.245   -13.231
57.3914     85.174   -12.853
58.2261     85.123   -12.389
59.0730     85.095   -11.875
59.9323     85.090   -11.356
60.8040     85.108   -10.888
61.6884     85.145   -10.516
62.5857     85.199   -10.271
63.4960     85.257   -10.173
64.4196     85.303   -10.211
65.3566     85.332   -10.351
66.3073     85.340   -10.549
67.2717     85.323   -10.747
68.2502     85.292   -10.911
69.2429     85.259   -11.049
70.2501     85.228   -11.175
71.2719     85.201   -11.302
72.3086     85.159   -11.426
73.3603     85.097   -11.521
74.4274     85.016   -11.556
75.5099     84.923   -11.487
76.6083     84.840   -11.307
77.7226     84.763   -11.045
78.8531     84.691   -10.708
80.0000     84.627   -10.307
81.1636     84.565    -9.843
82.3442     84.509    -9.311
83.5419     84.468    -8.726
84.7570     84.447    -8.112
85.9899     84.444    -7.500
87.2406     84.457    -6.910
88.5096     84.474    -6.346
89.7970     84.493    -5.789
91.1031     84.518    -5.224
92.4282     84.562    -4.662
93.7726     84.637    -4.156
95.1366     84.743    -3.777
96.5204     84.876    -3.601
97.9243     85.017    -3.682
99.3486     85.144    -4.022
100.794     85.228    -4.544
102.260     85.259    -5.145
103.747     85.242    -5.732
105.256     85.185    -6.218
106.787     85.130    -6.572
108.340     85.073    -6.809
109.916     85.015    -6.939
111.515     84.957    -6.987
113.137     84.894    -6.962
114.783     84.841    -6.868
116.452     84.798    -6.728
118.146     84.765    -6.559
119.865     84.737    -6.381
121.608     84.712    -6.205
123.377     84.694    -6.042
125.171     84.681    -5.901
126.992     84.670    -5.782
128.839     84.647    -5.669
130.713     84.615    -5.536
132.615     84.581    -5.374
134.543     84.549    -5.174
136.500     84.526    -4.943
138.486     84.509    -4.700
140.500     84.489    -4.447
142.544     84.468    -4.173
144.617     84.448    -3.865
146.721     84.432    -3.521
148.855     84.428    -3.157
151.020     84.443    -2.810
153.217     84.472    -2.515
155.445     84.504    -2.282
157.706     84.530    -2.105
160.000     84.541    -1.954
162.327     84.543    -1.794
164.688     84.546    -1.610
167.084     84.561    -1.422
169.514     84.587    -1.260
171.980     84.605    -1.110
174.481     84.615    -0.947
177.019     84.611    -0.755
179.594     84.612    -0.521
182.206     84.638    -0.271
184.856     84.686    -0.053
187.545     84.740     0.100
190.273     84.783     0.187
193.041     84.822     0.217
195.849     84.862     0.195
198.697     84.896     0.145
201.587     84.927     0.077
204.520     84.943    -0.006
207.494     84.946    -0.068
210.512     84.946    -0.083
213.574     84.947    -0.046
216.681     84.949     0.046
219.833     84.964     0.166
223.030     84.996     0.271
226.274     85.045     0.326
229.565     85.109     0.292
232.905     85.159     0.172
236.292     85.197    -0.002
239.729     85.222    -0.211
243.216     85.247    -0.449
246.754     85.279    -0.729
250.343     85.311    -1.072
253.984     85.334    -1.484
257.678     85.328    -1.938
261.426     85.285    -2.353
265.229     85.219    -2.662
269.087     85.139    -2.830
273.001     85.057    -2.828
276.972     85.009    -2.701
281.000     84.986    -2.533
285.088     84.989    -2.382
289.234     85.012    -2.314
293.441     85.037    -2.361
297.709     85.057    -2.518
302.040     85.069    -2.775
306.433     85.059    -3.099
310.890     85.026    -3.443
315.412     84.972    -3.768
320.000     84.884    -4.005
324.655     84.778    -4.087
329.377     84.658    -3.983
334.168     84.547    -3.692
339.028     84.469    -3.260
343.959     84.426    -2.763
348.962     84.411    -2.272
354.038     84.409    -1.834
359.188     84.409    -1.451
364.412     84.409    -1.102
369.713     84.410    -0.772
375.090     84.416    -0.456
380.546     84.436    -0.179
386.081     84.468     0.028
391.697     84.500     0.158
397.394     84.526     0.218
403.175     84.526     0.246
409.039     84.501     0.315
414.989     84.470     0.463
421.025     84.441     0.696
427.149     84.429     0.998
433.362     84.437     1.323
439.665     84.456     1.632
446.060     84.479     1.912
452.548     84.502     2.167
459.131     84.523     2.418
465.809     84.547     2.672
472.584     84.582     2.916
479.458     84.631     3.124
486.432     84.695     3.263
493.507     84.766     3.301
500.686     84.837     3.224
507.968     84.889     3.059
515.357     84.926     2.844
522.853     84.943     2.610
530.458     84.946     2.395
538.174     84.946     2.213
546.002     84.946     2.057
553.943     84.946     1.914
562.001     84.946     1.767
570.175     84.946     1.607
578.469     84.943     1.430
586.883     84.927     1.252
595.419     84.895     1.102
604.080     84.862     0.984
612.866     84.822     0.905
621.780     84.784     0.878
630.824     84.749     0.885
640.000     84.715     0.905
649.309     84.676     0.942
658.753     84.637     1.009
668.335     84.600     1.094
678.056     84.552     1.203
687.919     84.499     1.367
697.925     84.455     1.572
708.077     84.403     1.818
718.376     84.353     2.127
728.825     84.309     2.480
739.426     84.256     2.895
750.181     84.209     3.402
761.093     84.162     4.009
772.163     84.112     4.759
783.394     84.089     5.642
794.789     84.107     6.586
806.349     84.174     7.513
818.078     84.289     8.320
829.977     84.429     8.928
842.050     84.574     9.319
854.298     84.711     9.518
866.724     84.832     9.572
879.330     84.944     9.514
892.120     85.045     9.361
905.097     85.137     9.137
918.262     85.223     8.852
931.618     85.285     8.526
945.169     85.329     8.193
958.917     85.367     7.854
972.864     85.404     7.501
987.015     85.437     7.134
1001.37     85.467     6.737
1015.94     85.479     6.304
1030.71     85.469     5.869
1045.71     85.441     5.475
1060.92     85.395     5.147
1076.35     85.333     4.911
1092.00     85.276     4.761
1107.89     85.219     4.684
1124.00     85.162     4.680
1140.35     85.104     4.733
1156.94     85.032     4.859
1173.77     84.960     5.089
1190.84     84.886     5.438
1208.16     84.816     5.924
1225.73     84.758     6.535
1243.56     84.729     7.227
1261.65     84.735     7.945
1280.00     84.759     8.655
1298.62     84.795     9.345
1317.51     84.832    10.015
1336.67     84.878    10.685
1356.11     84.943    11.360
1375.84     85.040    11.996
1395.85     85.157    12.544
1416.15     85.291    12.979
1436.75     85.436    13.279
1457.65     85.582    13.441
1478.85     85.729    13.473
1500.36     85.876    13.375
1522.19     86.022    13.139
1544.33     86.168    12.754
1566.79     86.305    12.215
1589.58     86.418    11.547
1612.70     86.497    10.803
1636.16     86.541    10.033
1659.95     86.556     9.278
1684.10     86.558     8.566
1708.60     86.556     7.893
1733.45     86.537     7.258
1758.66     86.489     6.697
1784.24     86.420     6.245
1810.19     86.331     5.935
1836.52     86.231     5.819
1863.24     86.147     5.890
1890.34     86.082     6.090
1917.83     86.040     6.380
1945.73     86.024     6.711
1974.03     86.022     7.047
2002.74     86.022     7.387
2031.87     86.025     7.747
2061.43     86.042     8.128
2091.41     86.079     8.506
2121.83     86.133     8.864
2152.69     86.205     9.172
2184.01     86.285     9.406
2215.77     86.374     9.562
2248.00     86.467     9.637
2280.70     86.568     9.623
2313.87     86.679     9.489
2347.53     86.786     9.229
2381.68     86.890     8.851
2416.32     86.981     8.355
2451.46     87.039     7.791
2487.12     87.077     7.212
2523.30     87.094     6.647
2560.00     87.096     6.121
2597.24     87.096     5.639
2635.01     87.094     5.189
2673.34     87.082     4.774
2712.23     87.054     4.419
2751.68     87.019     4.144
2791.70     86.972     3.976
2832.31     86.924     3.950
2873.50     86.905     4.022
2915.30     86.911     4.125
2957.70     86.949     4.203
3000.72     87.018     4.175
3044.37     87.088     3.999
3088.65     87.149     3.691
3133.58     87.193     3.286
3179.16     87.219     2.825
3225.40     87.229     2.341
3272.31     87.231     1.847
3319.91     87.230     1.340
3368.20     87.224     0.813
3417.19     87.198     0.281
3466.89     87.144    -0.209
3517.32     87.069    -0.621
3568.48     86.974    -0.909
3620.39     86.875    -1.025
3673.05     86.784    -0.973
3726.47     86.699    -0.773
3780.67     86.649    -0.477
3835.67     86.638    -0.177
3891.46     86.648     0.078
3948.06     86.674     0.255
4005.49     86.690     0.349
4063.75     86.693     0.408
4122.86     86.696     0.463
4182.82     86.706     0.515
4243.66     86.732     0.531
4305.39     86.764     0.487
4368.01     86.796     0.372
4431.55     86.818     0.187
4496.01     86.823    -0.038
4561.40     86.807    -0.251
4627.75     86.776    -0.411
4695.06     86.743    -0.513
4763.35     86.710    -0.563
4832.64     86.685    -0.563
4902.93     86.659    -0.520
4974.24     86.624    -0.426
5046.60     86.579    -0.244
5120.00     86.527     0.083
5194.47     86.489     0.575
5270.03     86.477     1.197
5346.68     86.518     1.867
5424.45     86.624     2.448
5503.35     86.781     2.805
5583.40     86.954     2.871
5664.61     87.116     2.648
5747.01     87.239     2.204
5830.60     87.327     1.630
5915.41     87.393     0.979
6001.45     87.437     0.288
6088.74     87.470    -0.424
6177.30     87.487    -1.163
6267.15     87.471    -1.895
6358.31     87.415    -2.543
6450.80     87.325    -3.032
6544.62     87.208    -3.296
6639.82     87.090    -3.292
6736.40     87.000    -3.038
6834.38     86.953    -2.616
6933.79     86.955    -2.134
7034.64     87.006    -1.699
7136.96     87.085    -1.389
7240.77     87.176    -1.225
7346.09     87.278    -1.228
7452.94     87.372    -1.382
7561.35     87.463    -1.651
7671.33     87.550    -2.035
7782.91     87.623    -2.518
7896.12     87.685    -3.071
8010.97     87.730    -3.670
8127.49     87.757    -4.285
8245.71     87.767    -4.893
8365.65     87.769    -5.478
8487.33     87.769    -6.040
8610.78     87.768    -6.591
8736.03     87.761    -7.132
8863.09     87.741    -7.644
8992.01     87.709    -8.106
9122.80     87.677    -8.515
9255.50     87.649    -8.877
9390.12     87.637    -9.209
9526.70     87.635    -9.547
9665.27     87.634    -9.910
9805.86     87.635   -10.310
9948.49     87.639   -10.764
10093.2     87.656   -11.308
10240.0     87.680   -11.981
10388.9     87.682   -12.763
10540.1     87.648   -13.600
10693.4     87.565   -14.420
10848.9     87.438   -15.122
11006.7     87.295   -15.629
11166.8     87.151   -15.923
11329.2     87.021   -16.028
11494.0     86.921   -16.013
11661.2     86.842   -15.935
11830.8     86.784   -15.833
12002.9     86.744   -15.762
12177.5     86.704   -15.733
12354.6     86.665   -15.717
12534.3     86.631   -15.717
12716.6     86.598   -15.740
12901.6     86.570   -15.781
13089.2     86.545   -15.835
13279.6     86.514   -15.890
13472.8     86.481   -15.952
13668.8     86.448   -16.017
13867.6     86.424   -16.079
14069.3     86.400   -16.138
14273.9     86.367   -16.185
14481.5     86.335   -16.218
14692.2     86.306   -16.236
14905.9     86.293   -16.247
15122.7     86.291   -16.283
15342.7     86.290   -16.365
15565.8     86.290   -16.497
15792.2     86.290   -16.685
16021.9     86.289   -16.928
16255.0     86.283   -17.224
16491.4     86.263   -17.550
16731.3     86.223   -17.868
16974.7     86.167   -18.142
17221.6     86.096   -18.334
17472.1     86.025   -18.422
17726.2     85.965   -18.427
17984.0     85.921   -18.382
18245.6     85.894   -18.317
18511.0     85.871   -18.243
18780.2     85.842   -18.145
19053.4     85.828   -18.043
19330.5     85.830   -17.960
19611.7     85.854   -17.923
19897.0     85.906   -18.004
20186.4     85.960   -18.259
20480.0     86.006   -18.678
20777.9     86.023   -19.211
21080.1     86.002   -19.788
21386.7     85.943   -20.333
21697.8     85.848   -20.746
22013.4     85.743   -20.951
22333.6     85.642   -20.949
22658.4     85.566   -20.779
22988.0     85.539   -20.530
23322.4     85.564   -20.326
23661.6     85.629   -20.292
24005.8     85.712   -20.510
24355.0     85.785   -20.983
24709.2     85.824   -21.643
25068.6     85.808   -22.390
25433.2     85.737   -23.102
25803.2     85.637   -23.696
26178.5     85.530   -24.131
26559.3     85.424   -24.393
26945.6     85.331   -24.511
27337.5     85.243   -24.524
27735.2     85.168   -24.448
28138.6     85.121   -24.322
28547.9     85.093   -24.183
28963.1     85.083   -24.056
29384.4     85.085   -23.965
29811.8     85.105   -23.943
30245.4     85.156   -24.054
30685.3     85.227   -24.356
31131.7     85.309   -24.890
31584.5     85.376   -25.672
32043.9     85.391   -26.630
32510.0     85.352   -27.648
32982.8     85.261   -28.634
33462.6     85.131   -29.493
33949.3     84.988   -30.177
34443.1     84.844   -30.693
34944.1     84.712   -31.085
35452.4     84.597   -31.415
35968.0     84.482   -31.705
36491.2     84.368   -31.967
37022.0     84.240   -32.205
37560.5     84.103   -32.388
38106.8     83.971   -32.519
38661.1     83.830   -32.582
39223.4     83.715   -32.604
39793.9     83.632   -32.627
