* This data was exported from the Dayton Audio Test System: DATS
*
* Piston Diameter = 30 mm
* f(s)= 1234 Hz
* R(e)= 3.689 Ohms
* Z(max)= 7.018 Ohms
* Q(ms)= 1.873
* Q(es)= 2.076
* Q(ts)= 0.9846
* V(as)= 0 liters     (0 cubic feet)
* L(e)= 0.2775 mH
* n(0)= 0 %
* SPL= 0 1W/1m
* M(ms)= 0 grams
* C(ms)= 0 mm/N
* BL= 0 
* K(r)= 1.971 
* X(r)= 0.06853 
* K(i)= 7.6e-06 
* X(i)= 1.1 
*
*
Freq            Impedance       Phase
1.029    	3.668    	-0.625    
1.059    	3.668    	-0.625    
1.091    	3.668    	-0.625    
1.122    	3.668    	-0.625    
1.155    	3.668    	-0.625    
1.189    	3.668    	-0.625    
1.224    	3.668    	-0.625    
1.260    	3.668    	-0.625    
1.297    	3.668    	-0.625    
1.335    	3.660    	-0.539    
1.374    	3.660    	-0.539    
1.414    	3.660    	-0.539    
1.456    	3.660    	-0.539    
1.498    	3.660    	-0.539    
1.542    	3.660    	-0.539    
1.587    	3.660    	-0.539    
1.634    	3.660    	-0.539    
1.682    	3.656    	-0.446    
1.731    	3.656    	-0.446    
1.782    	3.656    	-0.446    
1.834    	3.656    	-0.446    
1.888    	3.656    	-0.446    
1.943    	3.656    	-0.446    
2.000    	3.657    	-0.348    
2.059    	3.657    	-0.348    
2.119    	3.657    	-0.348    
2.181    	3.657    	-0.348    
2.245    	3.657    	-0.348    
2.311    	3.657    	-0.348    
2.378    	3.659    	-0.255    
2.448    	3.659    	-0.255    
2.520    	3.659    	-0.255    
2.594    	3.659    	-0.255    
2.670    	3.661    	-0.114    
2.748    	3.661    	-0.114    
2.828    	3.661    	-0.114    
2.911    	3.661    	-0.114    
2.997    	3.660    	0.077    
3.084    	3.660    	0.077    
3.175    	3.660    	0.077    
3.268    	3.660    	0.077    
3.364    	3.663    	0.238    
3.462    	3.663    	0.238    
3.564    	3.663    	0.238    
3.668    	3.658    	0.359    
3.775    	3.658    	0.359    
3.886    	3.658    	0.359    
4.000    	3.656    	0.428    
4.117    	3.656    	0.428    
4.238    	3.656    	0.428    
4.362    	3.649    	0.498    
4.490    	3.649    	0.498    
4.621    	3.649    	0.498    
4.757    	3.649    	0.549    
4.896    	3.649    	0.549    
5.040    	3.652    	0.582    
5.187    	3.652    	0.582    
5.339    	3.656    	0.618    
5.496    	3.656    	0.618    
5.657    	3.659    	0.641    
5.823    	3.659    	0.641    
5.993    	3.660    	0.654    
6.169    	3.660    	0.654    
6.350    	3.660    	0.670    
6.536    	3.660    	0.670    
6.727    	3.660    	0.693    
6.924    	3.660    	0.693    
7.127    	3.660    	0.727    
7.336    	3.661    	0.758    
7.551    	3.661    	0.758    
7.772    	3.661    	0.777    
8.000    	3.660    	0.789    
8.234    	3.660    	0.789    
8.476    	3.660    	0.793    
8.724    	3.661    	0.791    
8.980    	3.661    	0.791    
9.243    	3.661    	0.791    
9.514    	3.662    	0.791    
9.792    	3.662    	0.795    
10.079    	3.662    	0.796    
10.375    	3.662    	0.791    
10.679    	3.662    	0.789    
10.992    	3.662    	0.789    
11.314    	3.663    	0.789    
11.645    	3.663    	0.791    
11.986    	3.664    	0.792    
12.338    	3.665    	0.788    
12.699    	3.666    	0.779    
13.071    	3.667    	0.770    
13.454    	3.668    	0.764    
13.849    	3.669    	0.762    
14.254    	3.670    	0.764    
14.672    	3.672    	0.770    
15.102    	3.673    	0.769    
15.545    	3.674    	0.766    
16.000    	3.675    	0.765    
16.469    	3.677    	0.775    
16.951    	3.679    	0.795    
17.448    	3.680    	0.804    
17.959    	3.680    	0.820    
18.486    	3.681    	0.847    
19.027    	3.681    	0.876    
19.585    	3.683    	0.917    
20.159    	3.683    	0.935    
20.749    	3.683    	0.948    
21.357    	3.684    	0.961    
21.983    	3.684    	0.971    
22.627    	3.683    	0.984    
23.290    	3.683    	0.996    
23.973    	3.683    	1.007    
24.675    	3.682    	1.014    
25.398    	3.682    	1.009    
26.143    	3.682    	0.988    
26.909    	3.683    	0.958    
27.697    	3.684    	0.938    
28.509    	3.686    	0.939    
29.344    	3.688    	0.969    
30.204    	3.690    	1.020    
31.089    	3.692    	1.056    
32.000    	3.692    	1.090    
32.938    	3.692    	1.138    
33.903    	3.692    	1.176    
34.896    	3.690    	1.203    
35.919    	3.689    	1.217    
36.971    	3.689    	1.215    
38.055    	3.689    	1.209    
39.170    	3.689    	1.205    
40.317    	3.691    	1.205    
41.499    	3.693    	1.212    
42.715    	3.699    	1.257    
43.967    	3.701    	1.339    
45.255    	3.698    	1.377    
46.581    	3.698    	1.395    
47.946    	3.697    	1.425    
49.351    	3.691    	1.288    
50.797    	3.691    	1.386    
52.285    	3.694    	1.580    
53.817    	3.695    	1.557    
55.394    	3.695    	1.505    
57.018    	3.698    	1.511    
58.688    	3.703    	1.611    
60.408    	3.705    	1.722    
62.178    	3.703    	1.816    
64.000    	3.697    	1.860    
65.875    	3.695    	1.811    
67.806    	3.698    	1.779    
69.792    	3.702    	1.869    
71.838    	3.703    	1.975    
73.943    	3.705    	2.008    
76.109    	3.707    	2.067    
78.339    	3.703    	2.207    
80.635    	3.703    	2.231    
82.998    	3.701    	2.211    
85.430    	3.708    	2.197    
87.933    	3.714    	2.361    
90.510    	3.709    	2.446    
93.162    	3.707    	2.441    
95.892    	3.711    	2.479    
98.701    	3.707    	2.578    
101.594    	3.709    	2.664    
104.571    	3.715    	2.749    
107.635    	3.711    	2.851    
110.789    	3.710    	2.798    
114.035    	3.721    	2.890    
117.377    	3.719    	3.072    
120.816    	3.716    	3.123    
124.356    	3.719    	3.202    
128.000    	3.723    	3.248    
131.751    	3.723    	3.391    
135.611    	3.720    	3.491    
139.585    	3.724    	3.508    
143.675    	3.728    	3.671    
147.885    	3.727    	3.768    
152.219    	3.726    	3.855    
156.679    	3.733    	3.916    
161.270    	3.734    	4.094    
165.995    	3.737    	4.140    
170.860    	3.742    	4.252    
175.866    	3.739    	4.399    
181.019    	3.740    	4.480    
186.324    	3.747    	4.624    
191.783    	3.748    	4.780    
197.403    	3.756    	4.908    
203.187    	3.754    	5.057    
209.141    	3.757    	5.124    
215.269    	3.763    	5.342    
221.577    	3.765    	5.479    
228.070    	3.769    	5.579    
234.753    	3.773    	5.738    
241.632    	3.780    	5.913    
248.712    	3.782    	6.052    
256.000    	3.785    	6.202    
263.501    	3.789    	6.368    
271.223    	3.795    	6.569    
279.170    	3.800    	6.727    
287.350    	3.809    	6.931    
295.770    	3.815    	7.139    
304.437    	3.820    	7.314    
313.358    	3.827    	7.526    
322.540    	3.833    	7.729    
331.991    	3.840    	7.965    
341.719    	3.849    	8.173    
351.732    	3.856    	8.405    
362.039    	3.865    	8.641    
372.647    	3.878    	8.871    
383.567    	3.889    	9.174    
394.806    	3.899    	9.433    
406.375    	3.913    	9.691    
418.282    	3.922    	9.958    
430.539    	3.938    	10.201    
443.155    	3.953    	10.474    
456.140    	3.967    	10.808    
469.506    	3.980    	11.114    
483.264    	4.000    	11.464    
497.424    	4.020    	11.783    
512.000    	4.041    	12.095    
527.003    	4.062    	12.400    
542.445    	4.086    	12.741    
558.340    	4.113    	13.124    
574.701    	4.142    	13.512    
591.541    	4.173    	13.874    
608.874    	4.207    	14.268    
626.715    	4.242    	14.689    
645.080    	4.281    	15.054    
663.982    	4.326    	15.437    
683.438    	4.374    	15.813    
703.464    	4.429    	16.234    
724.077    	4.487    	16.663    
745.294    	4.551    	17.033    
767.133    	4.621    	17.386    
789.612    	4.703    	17.770    
812.749    	4.793    	18.070    
836.565    	4.892    	18.343    
861.078    	5.004    	18.566    
886.309    	5.125    	18.685    
912.280    	5.258    	18.710    
939.012    	5.408    	18.620    
966.527    	5.574    	18.358    
994.849    	5.758    	17.806    
1024.000    	5.952    	17.112    
1054.005    	6.156    	16.091    
1084.890    	6.361    	14.695    
1116.680    	6.564    	12.986    
1149.401    	6.745    	10.901    
1183.081    	6.893    	8.445    
1217.748    	6.990    	5.702    
1253.431    	7.028    	2.829    
1290.159    	6.996    	-0.108    
1327.964    	6.896    	-2.894    
1366.876    	6.741    	-5.400    
1406.929    	6.544    	-7.490    
1448.155    	6.329    	-9.141    
1490.589    	6.115    	-10.401    
1534.266    	5.913    	-11.291    
1579.224    	5.720    	-11.888    
1625.499    	5.545    	-12.293    
1673.129    	5.387    	-12.457    
1722.156    	5.246    	-12.531    
1772.619    	5.122    	-12.541    
1824.561    	5.005    	-12.521    
1878.024    	4.890    	-12.441    
1933.055    	4.776    	-12.264    
1989.697    	4.665    	-11.977    
2048.000    	4.565    	-11.514    
2108.011    	4.472    	-10.980    
2169.780    	4.389    	-10.297    
2233.360    	4.316    	-9.586    
2298.802    	4.253    	-8.817    
2366.162    	4.204    	-8.066    
2435.496    	4.161    	-7.291    
2506.862    	4.123    	-6.501    
2580.318    	4.092    	-5.795    
2655.927    	4.064    	-5.041    
2733.752    	4.042    	-4.334    
2813.857    	4.022    	-3.658    
2896.309    	4.010    	-2.939    
2981.178    	4.000    	-2.336    
3068.533    	3.987    	-1.694    
3158.448    	3.980    	-1.041    
3250.997    	3.976    	-0.444    
3346.259    	3.968    	0.075    
3444.312    	3.964    	0.698    
3545.238    	3.962    	1.279    
3649.121    	3.961    	1.771    
3756.049    	3.958    	2.266    
3866.109    	3.960    	2.842    
3979.395    	3.960    	3.354    
4096.000    	3.961    	3.846    
4216.022    	3.956    	4.297    
4339.561    	3.953    	4.820    
4466.720    	3.956    	5.398    
4597.605    	3.959    	5.954    
4732.325    	3.962    	6.556    
4870.992    	3.970    	7.129    
5013.723    	3.979    	7.705    
5160.637    	3.989    	8.263    
5311.855    	3.998    	8.788    
5467.504    	4.010    	9.314    
5627.714    	4.024    	9.820    
5792.619    	4.035    	10.333    
5962.355    	4.048    	10.862    
6137.066    	4.061    	11.386    
6316.896    	4.074    	11.914    
6501.995    	4.088    	12.455    
6692.518    	4.102    	12.977    
6888.623    	4.123    	13.548    
7090.476    	4.141    	14.076    
7298.242    	4.159    	14.608    
7512.097    	4.180    	15.164    
7732.218    	4.203    	15.687    
7958.790    	4.228    	16.229    
8192.000    	4.253    	16.792    
8432.044    	4.279    	17.329    
8679.122    	4.305    	17.847    
8933.439    	4.333    	18.381    
9195.209    	4.361    	18.917    
9464.649    	4.394    	19.476    
9741.985    	4.425    	19.954    
10027.447    	4.461    	20.458    
10321.273    	4.494    	20.941    
10623.710    	4.529    	21.460    
10935.008    	4.566    	21.970    
11255.428    	4.603    	22.440    
11585.238    	4.642    	22.886    
11924.711    	4.681    	23.385    
12274.132    	4.719    	23.867    
12633.791    	4.759    	24.309    
13003.989    	4.799    	24.750    
13385.035    	4.838    	25.191    
13777.247    	4.877    	25.641    
14180.951    	4.913    	26.095    
14596.485    	4.948    	26.624    
15024.194    	4.985    	27.141    
15464.437    	5.028    	27.718    
15917.579    	5.076    	28.362    
16384.000    	5.142    	28.809    
16864.088    	5.180    	29.241    
17358.243    	5.230    	29.869    
17866.879    	5.281    	30.411    
18390.418    	5.338    	30.942    
18929.299    	5.403    	31.473    
19483.969    	5.459    	32.006    
20054.893    	5.523    	32.585    
20642.546    	5.596    	33.055    
