* This data was exported from the Dayton Audio Test System: DATS
*
* Piston Diameter = 68 mm
* f(s)= 97.5 Hz
* R(e)= 6.757 Ohms
* Z(max)= 28.42 Ohms
* Q(ms)= 4.147
* Q(es)= 1.293
* Q(ts)= 0.9859
* V(as)= 1.064 liters     (0.03758 cubic feet)
* L(e)= 0.2402 mH
* n(0)= 0.07274 %
* SPL= 80.72 1W/1m
* M(ms)= 4.637 grams
* C(ms)= 0.575 mm/N
* BL= 3.853 
* K(r)= 0.3921 
* X(r)= 0.3139 
* K(i)= 0.003896 
* X(i)= 0.7258 
*
*
Freq            Impedance       Phase
1.029    	6.748    	0.932    
1.059    	6.748    	0.932    
1.091    	6.748    	0.932    
1.122    	6.748    	0.932    
1.155    	6.748    	0.932    
1.189    	6.748    	0.932    
1.224    	6.748    	0.932    
1.260    	6.748    	0.932    
1.297    	6.748    	0.932    
1.335    	6.744    	0.943    
1.374    	6.744    	0.943    
1.414    	6.744    	0.943    
1.456    	6.744    	0.943    
1.498    	6.744    	0.943    
1.542    	6.744    	0.943    
1.587    	6.744    	0.943    
1.634    	6.744    	0.943    
1.682    	6.740    	1.001    
1.731    	6.740    	1.001    
1.782    	6.740    	1.001    
1.834    	6.740    	1.001    
1.888    	6.740    	1.001    
1.943    	6.740    	1.001    
2.000    	6.740    	1.066    
2.059    	6.740    	1.066    
2.119    	6.740    	1.066    
2.181    	6.740    	1.066    
2.245    	6.740    	1.066    
2.311    	6.740    	1.066    
2.378    	6.743    	1.133    
2.448    	6.743    	1.133    
2.520    	6.743    	1.133    
2.594    	6.743    	1.133    
2.670    	6.751    	1.242    
2.748    	6.751    	1.242    
2.828    	6.751    	1.242    
2.911    	6.751    	1.242    
2.997    	6.759    	1.411    
3.084    	6.759    	1.411    
3.175    	6.759    	1.411    
3.268    	6.759    	1.411    
3.364    	6.768    	1.621    
3.462    	6.768    	1.621    
3.564    	6.768    	1.621    
3.668    	6.765    	1.835    
3.775    	6.765    	1.835    
3.886    	6.765    	1.835    
4.000    	6.765    	2.035    
4.117    	6.765    	2.035    
4.238    	6.765    	2.035    
4.362    	6.760    	2.226    
4.490    	6.760    	2.226    
4.621    	6.760    	2.226    
4.757    	6.765    	2.412    
4.896    	6.765    	2.412    
5.040    	6.769    	2.583    
5.187    	6.769    	2.583    
5.339    	6.775    	2.733    
5.496    	6.775    	2.733    
5.657    	6.779    	2.858    
5.823    	6.779    	2.858    
5.993    	6.782    	2.968    
6.169    	6.782    	2.968    
6.350    	6.786    	3.088    
6.536    	6.786    	3.088    
6.727    	6.788    	3.230    
6.924    	6.788    	3.230    
7.127    	6.788    	3.403    
7.336    	6.788    	3.598    
7.551    	6.788    	3.598    
7.772    	6.792    	3.794    
8.000    	6.800    	3.978    
8.234    	6.800    	3.978    
8.476    	6.811    	4.151    
8.724    	6.823    	4.309    
8.980    	6.832    	4.452    
9.243    	6.832    	4.452    
9.514    	6.841    	4.571    
9.792    	6.848    	4.677    
10.079    	6.853    	4.796    
10.375    	6.849    	4.943    
10.679    	6.838    	5.115    
10.992    	6.828    	5.300    
11.314    	6.827    	5.492    
11.645    	6.834    	5.692    
11.986    	6.847    	5.897    
12.338    	6.863    	6.092    
12.699    	6.879    	6.266    
13.071    	6.894    	6.416    
13.454    	6.904    	6.541    
13.849    	6.910    	6.652    
14.254    	6.914    	6.758    
14.672    	6.918    	6.929    
15.102    	6.920    	7.137    
15.545    	6.919    	7.313    
16.000    	6.921    	7.638    
16.469    	6.930    	7.994    
16.951    	6.945    	8.337    
17.448    	6.962    	8.646    
17.959    	6.980    	8.888    
18.486    	6.997    	9.071    
19.027    	7.004    	9.226    
19.585    	7.004    	9.438    
20.159    	7.002    	9.618    
20.749    	7.003    	9.857    
21.357    	7.010    	10.230    
21.983    	7.026    	10.616    
22.627    	7.054    	10.964    
23.290    	7.088    	11.225    
23.973    	7.117    	11.433    
24.675    	7.144    	11.612    
25.398    	7.162    	11.867    
26.143    	7.173    	12.213    
26.909    	7.194    	12.766    
27.697    	7.219    	13.345    
28.509    	7.236    	13.752    
29.344    	7.275    	14.204    
30.204    	7.322    	14.647    
31.089    	7.336    	14.957    
32.000    	7.359    	15.295    
32.938    	7.393    	15.783    
33.903    	7.437    	16.425    
34.896    	7.486    	17.068    
35.919    	7.532    	17.592    
36.971    	7.575    	18.021    
38.055    	7.618    	18.411    
39.170    	7.657    	18.852    
40.317    	7.727    	19.350    
41.499    	7.811    	19.890    
42.715    	7.902    	20.531    
43.967    	7.992    	21.494    
45.255    	8.083    	22.413    
46.581    	8.141    	23.245    
47.946    	8.191    	23.992    
49.351    	8.270    	24.472    
50.797    	8.425    	25.054    
52.285    	8.603    	25.921    
53.817    	8.801    	26.957    
55.394    	8.976    	27.979    
57.018    	9.151    	28.716    
58.688    	9.344    	29.611    
60.408    	9.655    	30.941    
62.178    	9.933    	32.295    
64.000    	10.222    	33.326    
65.875    	10.549    	34.110    
67.806    	11.068    	34.452    
69.792    	11.782    	35.155    
71.838    	12.480    	36.405    
73.943    	13.172    	37.490    
76.109    	14.057    	37.797    
78.339    	15.378    	37.458    
80.635    	16.983    	36.595    
82.998    	18.851    	34.542    
85.430    	21.059    	30.921    
87.933    	23.688    	26.082    
90.510    	25.810    	20.463    
93.162    	27.068    	12.224    
95.892    	28.080    	0.791    
98.701    	28.172    	-9.143    
101.594    	26.621    	-17.112    
104.571    	24.189    	-24.166    
107.635    	21.763    	-29.044    
110.789    	19.253    	-33.036    
114.035    	17.785    	-36.572    
117.377    	16.653    	-36.627    
120.816    	14.978    	-36.397    
124.356    	13.762    	-37.726    
128.000    	13.004    	-37.961    
131.751    	12.431    	-37.525    
135.611    	11.710    	-35.560    
139.585    	10.881    	-35.734    
143.675    	10.681    	-35.795    
147.885    	10.361    	-33.223    
152.219    	9.801    	-31.814    
156.679    	9.399    	-32.401    
161.270    	9.523    	-30.617    
165.995    	9.003    	-27.516    
170.860    	8.620    	-28.432    
175.866    	8.827    	-27.507    
181.019    	8.514    	-23.279    
186.324    	7.985    	-25.074    
191.783    	8.340    	-24.531    
197.403    	8.061    	-20.420    
203.187    	7.705    	-22.096    
209.141    	8.001    	-20.428    
215.269    	7.644    	-18.181    
221.577    	7.630    	-19.085    
228.070    	7.613    	-16.573    
234.753    	7.474    	-16.512    
241.632    	7.505    	-15.406    
248.712    	7.380    	-14.666    
256.000    	7.373    	-13.671    
263.501    	7.319    	-12.910    
271.223    	7.310    	-12.004    
279.170    	7.274    	-11.422    
287.350    	7.238    	-10.624    
295.770    	7.219    	-9.929    
304.437    	7.192    	-9.213    
313.358    	7.181    	-8.512    
322.540    	7.168    	-7.807    
331.991    	7.159    	-7.172    
341.719    	7.149    	-6.547    
351.732    	7.137    	-5.943    
362.039    	7.133    	-5.348    
372.647    	7.126    	-4.746    
383.567    	7.123    	-4.174    
394.806    	7.123    	-3.618    
406.375    	7.124    	-3.056    
418.282    	7.124    	-2.523    
430.539    	7.126    	-1.995    
443.155    	7.134    	-1.474    
456.140    	7.138    	-0.980    
469.506    	7.141    	-0.479    
483.264    	7.144    	0.026    
497.424    	7.149    	0.489    
512.000    	7.156    	1.015    
527.003    	7.165    	1.510    
542.445    	7.175    	2.001    
558.340    	7.188    	2.491    
574.701    	7.202    	2.959    
591.541    	7.213    	3.439    
608.874    	7.229    	3.875    
626.715    	7.246    	4.345    
645.080    	7.264    	4.783    
663.982    	7.285    	5.256    
683.438    	7.303    	5.700    
703.464    	7.326    	6.145    
724.077    	7.350    	6.530    
745.294    	7.369    	6.950    
767.133    	7.393    	7.367    
789.612    	7.414    	7.742    
812.749    	7.438    	8.155    
836.565    	7.458    	8.526    
861.078    	7.473    	8.926    
886.309    	7.492    	9.339    
912.280    	7.509    	9.799    
939.012    	7.536    	10.262    
966.527    	7.558    	10.749    
994.849    	7.593    	11.294    
1024.000    	7.642    	11.684    
1054.005    	7.699    	11.974    
1084.890    	7.712    	12.072    
1116.680    	7.703    	12.484    
1149.401    	7.719    	13.048    
1183.081    	7.748    	13.618    
1217.748    	7.788    	14.108    
1253.431    	7.820    	14.610    
1290.159    	7.860    	15.115    
1327.964    	7.907    	15.596    
1366.876    	7.950    	16.084    
1406.929    	8.002    	16.560    
1448.155    	8.047    	16.959    
1490.589    	8.086    	17.410    
1534.266    	8.136    	17.880    
1579.224    	8.188    	18.382    
1625.499    	8.241    	18.840    
1673.129    	8.295    	19.289    
1722.156    	8.353    	19.760    
1772.619    	8.412    	20.217    
1824.561    	8.470    	20.706    
1878.024    	8.534    	21.171    
1933.055    	8.599    	21.619    
1989.697    	8.668    	22.101    
2048.000    	8.734    	22.530    
2108.011    	8.804    	23.012    
2169.780    	8.876    	23.496    
2233.360    	8.957    	23.989    
2298.802    	9.046    	24.454    
2366.162    	9.144    	24.871    
2435.496    	9.241    	25.162    
2506.862    	9.306    	25.403    
2580.318    	9.358    	25.820    
2655.927    	9.428    	26.343    
2733.752    	9.517    	26.893    
2813.857    	9.617    	27.365    
2896.309    	9.710    	27.839    
2981.178    	9.810    	28.309    
3068.533    	9.912    	28.755    
3158.448    	10.023    	29.203    
3250.997    	10.135    	29.603    
3346.259    	10.247    	30.022    
3444.312    	10.362    	30.444    
3545.238    	10.481    	30.816    
3649.121    	10.599    	31.202    
3756.049    	10.715    	31.583    
3866.109    	10.834    	31.999    
3979.395    	10.955    	32.379    
4096.000    	11.078    	32.775    
4216.022    	11.202    	33.169    
4339.561    	11.328    	33.576    
4466.720    	11.458    	34.022    
4597.605    	11.598    	34.452    
4732.325    	11.740    	34.899    
4870.992    	11.889    	35.333    
5013.723    	12.041    	35.758    
5160.637    	12.204    	36.198    
5311.855    	12.378    	36.645    
5467.504    	12.550    	37.057    
5627.714    	12.728    	37.465    
5792.619    	12.921    	37.869    
5962.355    	13.121    	38.286    
6137.066    	13.331    	38.654    
6316.896    	13.559    	38.994    
6501.995    	13.812    	39.270    
6692.518    	14.074    	39.412    
6888.623    	14.330    	39.354    
7090.476    	14.546    	39.105    
7298.242    	14.649    	38.750    
7512.097    	14.655    	38.837    
7732.218    	14.698    	39.442    
7958.790    	14.843    	40.168    
8192.000    	15.036    	40.838    
8432.044    	15.266    	41.424    
8679.122    	15.502    	41.984    
8933.439    	15.807    	42.525    
9195.209    	16.073    	42.580    
9464.649    	16.276    	43.104    
9741.985    	16.597    	43.407    
10027.447    	16.852    	43.534    
10321.273    	17.021    	43.939    
10623.710    	17.323    	44.397    
10935.008    	17.618    	44.762    
11255.428    	17.910    	45.017    
11585.238    	18.187    	45.389    
11924.711    	18.508    	45.735    
12274.132    	18.832    	46.044    
12633.791    	19.163    	46.326    
13003.989    	19.493    	46.596    
13385.035    	19.848    	46.855    
13777.247    	20.194    	47.042    
14180.951    	20.530    	47.222    
14596.485    	20.869    	47.434    
15024.194    	21.216    	47.641    
15464.437    	21.548    	47.834    
15917.579    	21.887    	48.165    
16384.000    	22.293    	48.464    
16864.088    	22.673    	48.655    
17358.243    	23.062    	48.919    
17866.879    	23.463    	49.164    
18390.418    	23.873    	49.339    
18929.299    	24.285    	49.442    
19483.969    	24.647    	49.406    
20054.893    	24.933    	49.429    
20642.546    	25.141    	49.402    
