* This data was exported from the Dayton Audio Test System: DATS
*
* Piston Diameter = 72 mm
* f(s)= 81.25 Hz
* R(e)= 3.821 Ohms
* Z(max)= 24.21 Ohms
* Q(ms)= 5.355
* Q(es)= 1.004
* Q(ts)= 0.8452
* V(as)= 1.488 liters     (0.05256 cubic feet)
* L(e)= 0.5804 mH
* n(0)= 0.07586 %
* SPL= 80.9 1W/1m
* M(ms)= 6.002 grams
* C(ms)= 0.639 mm/N
* BL= 3.415 
* K(r)= 0.01372 
* X(r)= 0.6353 
* K(i)= 0.01454 
* X(i)= 0.6636 
*
*
Freq            Impedance       Phase
1.029    	3.845    	1.676    
1.059    	3.845    	1.676    
1.091    	3.845    	1.676    
1.122    	3.845    	1.676    
1.155    	3.845    	1.676    
1.189    	3.845    	1.676    
1.224    	3.845    	1.676    
1.260    	3.845    	1.676    
1.297    	3.845    	1.676    
1.335    	3.836    	1.630    
1.374    	3.836    	1.630    
1.414    	3.836    	1.630    
1.456    	3.836    	1.630    
1.498    	3.836    	1.630    
1.542    	3.836    	1.630    
1.587    	3.836    	1.630    
1.634    	3.836    	1.630    
1.682    	3.822    	1.639    
1.731    	3.822    	1.639    
1.782    	3.822    	1.639    
1.834    	3.822    	1.639    
1.888    	3.822    	1.639    
1.943    	3.822    	1.639    
2.000    	3.826    	1.562    
2.059    	3.826    	1.562    
2.119    	3.826    	1.562    
2.181    	3.826    	1.562    
2.245    	3.826    	1.562    
2.311    	3.826    	1.562    
2.378    	3.829    	1.595    
2.448    	3.829    	1.595    
2.520    	3.829    	1.595    
2.594    	3.829    	1.595    
2.670    	3.839    	1.726    
2.748    	3.839    	1.726    
2.828    	3.839    	1.726    
2.911    	3.839    	1.726    
2.997    	3.843    	2.124    
3.084    	3.843    	2.124    
3.175    	3.843    	2.124    
3.268    	3.843    	2.124    
3.364    	3.850    	2.508    
3.462    	3.850    	2.508    
3.564    	3.850    	2.508    
3.668    	3.853    	2.873    
3.775    	3.853    	2.873    
3.886    	3.853    	2.873    
4.000    	3.862    	3.246    
4.117    	3.862    	3.246    
4.238    	3.862    	3.246    
4.362    	3.868    	3.582    
4.490    	3.868    	3.582    
4.621    	3.868    	3.582    
4.757    	3.878    	3.942    
4.896    	3.878    	3.942    
5.040    	3.884    	4.270    
5.187    	3.884    	4.270    
5.339    	3.890    	4.547    
5.496    	3.890    	4.547    
5.657    	3.892    	4.789    
5.823    	3.892    	4.789    
5.993    	3.889    	4.996    
6.169    	3.889    	4.996    
6.350    	3.886    	5.212    
6.536    	3.886    	5.212    
6.727    	3.883    	5.439    
6.924    	3.883    	5.439    
7.127    	3.884    	5.680    
7.336    	3.889    	5.960    
7.551    	3.889    	5.960    
7.772    	3.893    	6.253    
8.000    	3.895    	6.552    
8.234    	3.895    	6.552    
8.476    	3.897    	6.852    
8.724    	3.903    	7.134    
8.980    	3.911    	7.402    
9.243    	3.911    	7.402    
9.514    	3.917    	7.627    
9.792    	3.921    	7.792    
10.079    	3.926    	7.953    
10.375    	3.930    	8.143    
10.679    	3.930    	8.351    
10.992    	3.928    	8.567    
11.314    	3.930    	8.801    
11.645    	3.935    	9.084    
11.986    	3.940    	9.408    
12.338    	3.945    	9.721    
12.699    	3.953    	10.012    
13.071    	3.962    	10.295    
13.454    	3.970    	10.562    
13.849    	3.977    	10.801    
14.254    	3.985    	11.012    
14.672    	3.998    	11.310    
15.102    	4.016    	11.626    
15.545    	4.030    	11.856    
16.000    	4.036    	12.258    
16.469    	4.030    	12.694    
16.951    	4.030    	13.158    
17.448    	4.041    	13.632    
17.959    	4.061    	14.089    
18.486    	4.086    	14.515    
19.027    	4.107    	14.886    
19.585    	4.122    	15.336    
20.159    	4.132    	15.659    
20.749    	4.144    	15.990    
21.357    	4.160    	16.495    
21.983    	4.170    	17.023    
22.627    	4.185    	17.571    
23.290    	4.202    	18.080    
23.973    	4.221    	18.610    
24.675    	4.246    	19.165    
25.398    	4.276    	19.666    
26.143    	4.314    	20.150    
26.909    	4.344    	20.705    
27.697    	4.370    	21.270    
28.509    	4.390    	21.771    
29.344    	4.423    	22.452    
30.204    	4.466    	23.313    
31.089    	4.508    	24.014    
32.000    	4.557    	24.730    
32.938    	4.611    	25.517    
33.903    	4.669    	26.347    
34.896    	4.720    	27.144    
35.919    	4.768    	27.901    
36.971    	4.828    	28.665    
38.055    	4.892    	29.481    
39.170    	4.971    	30.465    
40.317    	5.064    	31.410    
41.499    	5.161    	32.265    
42.715    	5.273    	33.014    
43.967    	5.391    	34.014    
45.255    	5.531    	35.154    
46.581    	5.671    	36.304    
47.946    	5.811    	37.474    
49.351    	5.991    	38.559    
50.797    	6.212    	39.762    
52.285    	6.460    	40.778    
53.817    	6.748    	41.780    
55.394    	7.104    	42.836    
57.018    	7.445    	43.786    
58.688    	7.828    	44.732    
60.408    	8.396    	45.869    
62.178    	9.110    	46.972    
64.000    	9.925    	47.624    
65.875    	10.991    	47.462    
67.806    	12.408    	46.099    
69.792    	14.157    	43.403    
71.838    	16.172    	39.512    
73.943    	18.320    	34.113    
76.109    	20.687    	26.170    
78.339    	22.908    	14.960    
80.635    	24.094    	1.512    
82.998    	23.508    	-12.628    
85.430    	21.301    	-24.913    
87.933    	18.394    	-34.046    
90.510    	15.760    	-39.136    
93.162    	13.627    	-41.877    
95.892    	11.804    	-44.025    
98.701    	10.556    	-45.084    
101.594    	9.610    	-45.028    
104.571    	8.764    	-44.375    
107.635    	8.052    	-43.415    
110.789    	7.420    	-42.517    
114.035    	6.966    	-41.840    
117.377    	6.664    	-40.433    
120.816    	6.305    	-38.218    
124.356    	5.931    	-36.682    
128.000    	5.690    	-35.720    
131.751    	5.550    	-34.220    
135.611    	5.397    	-31.506    
139.585    	5.131    	-29.560    
143.675    	4.978    	-29.140    
147.885    	4.993    	-27.307    
152.219    	4.882    	-23.977    
156.679    	4.613    	-22.332    
161.270    	4.576    	-22.766    
165.995    	4.642    	-20.264    
170.860    	4.484    	-17.308    
175.866    	4.356    	-17.310    
181.019    	4.440    	-16.189    
186.324    	4.378    	-13.495    
191.783    	4.293    	-12.699    
197.403    	4.323    	-11.615    
203.187    	4.278    	-10.027    
209.141    	4.262    	-9.189    
215.269    	4.246    	-7.703    
221.577    	4.231    	-6.590    
228.070    	4.229    	-5.431    
234.753    	4.216    	-4.478    
241.632    	4.218    	-3.211    
248.712    	4.220    	-2.219    
256.000    	4.230    	-1.154    
263.501    	4.228    	-0.269    
271.223    	4.221    	0.759    
279.170    	4.230    	1.757    
287.350    	4.238    	2.776    
295.770    	4.252    	3.694    
304.437    	4.260    	4.621    
313.358    	4.276    	5.571    
322.540    	4.300    	6.475    
331.991    	4.313    	7.341    
341.719    	4.326    	8.193    
351.732    	4.342    	9.087    
362.039    	4.361    	9.965    
372.647    	4.383    	10.868    
383.567    	4.410    	11.754    
394.806    	4.439    	12.608    
406.375    	4.468    	13.439    
418.282    	4.498    	14.300    
430.539    	4.528    	15.100    
443.155    	4.561    	15.946    
456.140    	4.596    	16.696    
469.506    	4.633    	17.519    
483.264    	4.672    	18.327    
497.424    	4.714    	19.087    
512.000    	4.756    	19.898    
527.003    	4.805    	20.642    
542.445    	4.851    	21.383    
558.340    	4.899    	22.134    
574.701    	4.947    	22.856    
591.541    	4.999    	23.583    
608.874    	5.051    	24.287    
626.715    	5.106    	24.976    
645.080    	5.167    	25.662    
663.982    	5.225    	26.349    
683.438    	5.282    	27.018    
703.464    	5.344    	27.668    
724.077    	5.409    	28.355    
745.294    	5.470    	29.003    
767.133    	5.538    	29.645    
789.612    	5.605    	30.313    
812.749    	5.676    	30.976    
836.565    	5.750    	31.632    
861.078    	5.826    	32.298    
886.309    	5.906    	32.941    
912.280    	5.993    	33.578    
939.012    	6.081    	34.116    
966.527    	6.162    	34.775    
994.849    	6.252    	35.430    
1024.000    	6.345    	36.001    
1054.005    	6.445    	36.560    
1084.890    	6.553    	37.172    
1116.680    	6.664    	37.649    
1149.401    	6.765    	38.060    
1183.081    	6.857    	38.601    
1217.748    	6.967    	39.148    
1253.431    	7.076    	39.695    
1290.159    	7.193    	40.233    
1327.964    	7.313    	40.739    
1366.876    	7.438    	41.243    
1406.929    	7.564    	41.737    
1448.155    	7.696    	42.204    
1490.589    	7.832    	42.669    
1534.266    	7.973    	43.126    
1579.224    	8.121    	43.572    
1625.499    	8.272    	43.981    
1673.129    	8.428    	44.366    
1722.156    	8.593    	44.714    
1772.619    	8.757    	44.972    
1824.561    	8.918    	45.201    
1878.024    	9.076    	45.331    
1933.055    	9.203    	45.505    
1989.697    	9.329    	45.833    
2048.000    	9.460    	46.236    
2108.011    	9.617    	46.683    
2169.780    	9.779    	47.139    
2233.360    	9.957    	47.573    
2298.802    	10.142    	47.998    
2366.162    	10.333    	48.373    
2435.496    	10.527    	48.729    
2506.862    	10.730    	49.083    
2580.318    	10.934    	49.354    
2655.927    	11.145    	49.661    
2733.752    	11.359    	49.959    
2813.857    	11.581    	50.256    
2896.309    	11.802    	50.519    
2981.178    	12.027    	50.796    
3068.533    	12.261    	51.062    
3158.448    	12.500    	51.308    
3250.997    	12.748    	51.553    
3346.259    	12.997    	51.788    
3444.312    	13.254    	52.013    
3545.238    	13.517    	52.213    
3649.121    	13.785    	52.417    
3756.049    	14.055    	52.614    
3866.109    	14.336    	52.807    
3979.395    	14.619    	52.986    
4096.000    	14.911    	53.154    
4216.022    	15.206    	53.308    
4339.561    	15.508    	53.456    
4466.720    	15.813    	53.620    
4597.605    	16.129    	53.749    
4732.325    	16.451    	53.886    
4870.992    	16.774    	54.009    
5013.723    	17.105    	54.138    
5160.637    	17.447    	54.239    
5311.855    	17.792    	54.333    
5467.504    	18.141    	54.439    
5627.714    	18.500    	54.532    
5792.619    	18.865    	54.612    
5962.355    	19.236    	54.709    
6137.066    	19.610    	54.767    
6316.896    	19.993    	54.842    
6501.995    	20.388    	54.900    
6692.518    	20.788    	54.966    
6888.623    	21.195    	55.011    
7090.476    	21.605    	55.051    
7298.242    	22.028    	55.104    
7512.097    	22.458    	55.136    
7732.218    	22.889    	55.179    
7958.790    	23.327    	55.207    
8192.000    	23.783    	55.229    
8432.044    	24.241    	55.257    
8679.122    	24.705    	55.265    
8933.439    	25.178    	55.269    
9195.209    	25.660    	55.275    
9464.649    	26.143    	55.268    
9741.985    	26.628    	55.261    
10027.447    	27.117    	55.263    
10321.273    	27.624    	55.277    
10623.710    	28.137    	55.280    
10935.008    	28.658    	55.283    
11255.428    	29.189    	55.280    
11585.238    	29.730    	55.276    
11924.711    	30.282    	55.272    
12274.132    	30.838    	55.252    
12633.791    	31.402    	55.246    
13003.989    	31.968    	55.234    
13385.035    	32.552    	55.222    
13777.247    	33.135    	55.210    
14180.951    	33.727    	55.200    
14596.485    	34.330    	55.189    
15024.194    	34.937    	55.181    
15464.437    	35.559    	55.166    
15917.579    	36.180    	55.149    
16384.000    	36.820    	55.141    
16864.088    	37.458    	55.135    
17358.243    	38.088    	55.133    
17866.879    	38.700    	55.135    
18390.418    	39.302    	55.155    
18929.299    	39.871    	55.179    
19483.969    	40.433    	55.225    
20054.893    	40.958    	55.305    
20642.546    	41.402    	55.426    
