* This data was exported from the Dayton Audio Test System: DATS
*
* Piston Diameter = 145 mm
* f(s)= 42.06 Hz
* R(e)= 3.79 Ohms
* Z(max)= 43.76 Ohms
* Q(ms)= 6.399
* Q(es)= 0.6067
* Q(ts)= 0.5541
* V(as)= 24.78 liters     (0.8751 cubic feet)
* L(e)= 0.2377 mH
* n(0)= 0.2897 %
* SPL= 86.72 1W/1m
* M(ms)= 22.13 grams
* C(ms)= 0.647 mm/N
* BL= 6.044 
* K(r)= 2.707 
* X(r)= 0.09219 
* K(i)= 0.0003545 
* X(i)= 0.8413 
*
*
Freq            Impedance       Phase
1.029    	3.784    	7.016    
1.059    	3.784    	7.016    
1.091    	3.784    	7.016    
1.122    	3.784    	7.016    
1.155    	3.784    	7.016    
1.189    	3.784    	7.016    
1.224    	3.784    	7.016    
1.260    	3.784    	7.016    
1.297    	3.784    	7.016    
1.335    	3.791    	6.775    
1.374    	3.791    	6.775    
1.414    	3.791    	6.775    
1.456    	3.791    	6.775    
1.498    	3.791    	6.775    
1.542    	3.791    	6.775    
1.587    	3.791    	6.775    
1.634    	3.791    	6.775    
1.682    	3.786    	6.606    
1.731    	3.786    	6.606    
1.782    	3.786    	6.606    
1.834    	3.786    	6.606    
1.888    	3.786    	6.606    
1.943    	3.786    	6.606    
2.000    	3.815    	6.264    
2.059    	3.815    	6.264    
2.119    	3.815    	6.264    
2.181    	3.815    	6.264    
2.245    	3.815    	6.264    
2.311    	3.815    	6.264    
2.378    	3.818    	6.324    
2.448    	3.818    	6.324    
2.520    	3.818    	6.324    
2.594    	3.818    	6.324    
2.670    	3.825    	6.594    
2.748    	3.825    	6.594    
2.828    	3.825    	6.594    
2.911    	3.825    	6.594    
2.997    	3.818    	7.529    
3.084    	3.818    	7.529    
3.175    	3.818    	7.529    
3.268    	3.818    	7.529    
3.364    	3.822    	8.370    
3.462    	3.822    	8.370    
3.564    	3.822    	8.370    
3.668    	3.846    	9.295    
3.775    	3.846    	9.295    
3.886    	3.846    	9.295    
4.000    	3.879    	10.306    
4.117    	3.879    	10.306    
4.238    	3.879    	10.306    
4.362    	3.916    	11.156    
4.490    	3.916    	11.156    
4.621    	3.916    	11.156    
4.757    	3.959    	11.974    
4.896    	3.959    	11.974    
5.040    	3.998    	12.664    
5.187    	3.998    	12.664    
5.339    	4.034    	13.281    
5.496    	4.034    	13.281    
5.657    	4.052    	13.912    
5.823    	4.052    	13.912    
5.993    	4.058    	14.489    
6.169    	4.058    	14.489    
6.350    	4.062    	15.137    
6.536    	4.062    	15.137    
6.727    	4.067    	15.872    
6.924    	4.067    	15.872    
7.127    	4.080    	16.664    
7.336    	4.100    	17.540    
7.551    	4.100    	17.540    
7.772    	4.125    	18.407    
8.000    	4.155    	19.255    
8.234    	4.155    	19.255    
8.476    	4.188    	20.104    
8.724    	4.223    	20.891    
8.980    	4.262    	21.634    
9.243    	4.262    	21.634    
9.514    	4.305    	22.333    
9.792    	4.350    	22.972    
10.079    	4.394    	23.609    
10.375    	4.431    	24.239    
10.679    	4.461    	24.847    
10.992    	4.485    	25.473    
11.314    	4.506    	26.112    
11.645    	4.527    	26.775    
11.986    	4.553    	27.478    
12.338    	4.584    	28.195    
12.699    	4.623    	28.920    
13.071    	4.666    	29.648    
13.454    	4.715    	30.349    
13.849    	4.768    	31.028    
14.254    	4.823    	31.679    
14.672    	4.913    	32.565    
15.102    	5.009    	33.379    
15.545    	5.076    	33.882    
16.000    	5.170    	34.610    
16.469    	5.260    	35.325    
16.951    	5.354    	36.060    
17.448    	5.447    	36.820    
17.959    	5.539    	37.651    
18.486    	5.632    	38.543    
19.027    	5.735    	39.500    
19.585    	5.893    	40.831    
20.159    	6.031    	41.833    
20.749    	6.189    	42.789    
21.357    	6.411    	43.977    
21.983    	6.646    	45.052    
22.627    	6.889    	46.030    
23.290    	7.132    	46.935    
23.973    	7.375    	47.799    
24.675    	7.619    	48.674    
25.398    	7.872    	49.596    
26.143    	8.148    	50.606    
26.909    	8.533    	52.032    
27.697    	8.984    	53.628    
28.509    	9.434    	54.970    
29.344    	10.131    	56.550    
30.204    	11.185    	58.002    
31.089    	12.247    	58.673    
32.000    	13.644    	58.615    
32.938    	15.399    	57.756    
33.903    	17.581    	55.981    
34.896    	20.144    	53.291    
35.919    	23.131    	49.641    
36.971    	26.571    	44.893    
38.055    	30.462    	38.795    
39.170    	35.448    	29.388    
40.317    	40.195    	17.150    
41.499    	43.208    	2.696    
42.715    	42.968    	-12.743    
43.967    	38.713    	-30.890    
45.255    	31.721    	-44.444    
46.581    	25.526    	-51.692    
47.946    	21.175    	-55.272    
49.351    	18.233    	-57.011    
50.797    	15.941    	-57.804    
52.285    	14.230    	-57.942    
53.817    	12.940    	-57.671    
55.394    	11.789    	-56.888    
57.018    	10.892    	-55.964    
58.688    	10.105    	-55.205    
60.408    	9.311    	-54.399    
62.178    	8.668    	-53.627    
64.000    	8.233    	-53.062    
65.875    	7.882    	-52.019    
67.806    	7.547    	-50.648    
69.792    	7.246    	-49.092    
71.838    	6.947    	-47.342    
73.943    	6.655    	-45.553    
76.109    	6.356    	-43.985    
78.339    	6.103    	-42.734    
80.635    	5.941    	-41.661    
82.998    	5.862    	-40.350    
85.430    	5.811    	-38.704    
87.933    	5.713    	-36.976    
90.510    	5.581    	-35.826    
93.162    	5.458    	-35.108    
95.892    	5.335    	-34.389    
98.701    	5.234    	-33.458    
101.594    	5.135    	-32.143    
104.571    	5.019    	-30.507    
107.635    	4.886    	-29.286    
110.789    	4.780    	-28.456    
114.035    	4.747    	-27.527    
117.377    	4.716    	-26.013    
120.816    	4.646    	-24.396    
124.356    	4.575    	-23.197    
128.000    	4.534    	-22.086    
131.751    	4.496    	-20.792    
135.611    	4.455    	-19.578    
139.585    	4.424    	-18.649    
143.675    	4.425    	-17.542    
147.885    	4.409    	-16.160    
152.219    	4.371    	-15.227    
156.679    	4.372    	-14.242    
161.270    	4.351    	-13.100    
165.995    	4.348    	-12.165    
170.860    	4.346    	-11.284    
175.866    	4.343    	-10.324    
181.019    	4.338    	-9.504    
186.324    	4.349    	-8.587    
191.783    	4.350    	-7.710    
197.403    	4.359    	-6.947    
203.187    	4.364    	-6.124    
209.141    	4.367    	-5.396    
215.269    	4.379    	-4.624    
221.577    	4.391    	-3.859    
228.070    	4.406    	-3.138    
234.753    	4.416    	-2.467    
241.632    	4.436    	-1.816    
248.712    	4.447    	-1.187    
256.000    	4.468    	-0.562    
263.501    	4.482    	0.060    
271.223    	4.505    	0.645    
279.170    	4.525    	1.214    
287.350    	4.545    	1.812    
295.770    	4.569    	2.327    
304.437    	4.591    	2.866    
313.358    	4.616    	3.339    
322.540    	4.641    	3.842    
331.991    	4.665    	4.376    
341.719    	4.694    	4.849    
351.732    	4.718    	5.283    
362.039    	4.749    	5.703    
372.647    	4.779    	6.102    
383.567    	4.814    	6.567    
394.806    	4.845    	6.953    
406.375    	4.879    	7.297    
418.282    	4.920    	7.580    
430.539    	4.950    	7.719    
443.155    	4.974    	7.931    
456.140    	4.991    	8.295    
469.506    	5.014    	8.619    
483.264    	5.044    	8.976    
497.424    	5.071    	9.287    
512.000    	5.105    	9.576    
527.003    	5.137    	9.849    
542.445    	5.168    	10.122    
558.340    	5.199    	10.428    
574.701    	5.234    	10.675    
591.541    	5.267    	10.928    
608.874    	5.301    	11.175    
626.715    	5.335    	11.392    
645.080    	5.369    	11.623    
663.982    	5.407    	11.840    
683.438    	5.439    	12.019    
703.464    	5.476    	12.234    
724.077    	5.511    	12.452    
745.294    	5.548    	12.629    
767.133    	5.583    	12.789    
789.612    	5.617    	12.992    
812.749    	5.654    	13.168    
836.565    	5.695    	13.338    
861.078    	5.731    	13.550    
886.309    	5.771    	13.700    
912.280    	5.810    	13.882    
939.012    	5.851    	14.109    
966.527    	5.898    	14.239    
994.849    	5.946    	14.415    
1024.000    	5.990    	14.620    
1054.005    	6.043    	14.716    
1084.890    	6.097    	14.913    
1116.680    	6.170    	15.043    
1149.401    	6.240    	15.077    
1183.081    	6.332    	15.057    
1217.748    	6.425    	14.671    
1253.431    	6.481    	13.890    
1290.159    	6.484    	13.306    
1327.964    	6.478    	12.935    
1366.876    	6.457    	12.597    
1406.929    	6.415    	12.590    
1448.155    	6.393    	12.799    
1490.589    	6.388    	13.110    
1534.266    	6.407    	13.476    
1579.224    	6.429    	13.818    
1625.499    	6.458    	14.039    
1673.129    	6.487    	14.340    
1722.156    	6.525    	14.587    
1772.619    	6.571    	14.851    
1824.561    	6.629    	15.080    
1878.024    	6.698    	15.258    
1933.055    	6.772    	15.093    
1989.697    	6.792    	14.865    
2048.000    	6.793    	15.136    
2108.011    	6.858    	15.517    
2169.780    	6.951    	15.761    
2233.360    	7.073    	15.650    
2298.802    	7.184    	15.019    
2366.162    	7.223    	13.989    
2435.496    	7.184    	13.198    
2506.862    	7.115    	12.919    
2580.318    	7.054    	13.009    
2655.927    	7.025    	13.348    
2733.752    	7.032    	13.752    
2813.857    	7.069    	14.046    
2896.309    	7.108    	14.056    
2981.178    	7.122    	14.005    
3068.533    	7.131    	13.925    
3158.448    	7.116    	13.953    
3250.997    	7.105    	14.180    
3346.259    	7.102    	14.417    
3444.312    	7.108    	14.748    
3545.238    	7.128    	15.062    
3649.121    	7.153    	15.339    
3756.049    	7.177    	15.560    
3866.109    	7.200    	15.748    
3979.395    	7.217    	15.983    
4096.000    	7.233    	16.212    
4216.022    	7.249    	16.463    
4339.561    	7.270    	16.772    
4466.720    	7.296    	17.058    
4597.605    	7.322    	17.354    
4732.325    	7.350    	17.643    
4870.992    	7.380    	17.922    
5013.723    	7.407    	18.223    
5160.637    	7.435    	18.451    
5311.855    	7.458    	18.725    
5467.504    	7.484    	19.043    
5627.714    	7.511    	19.365    
5792.619    	7.540    	19.702    
5962.355    	7.571    	20.057    
6137.066    	7.604    	20.399    
6316.896    	7.633    	20.749    
6501.995    	7.673    	21.101    
6692.518    	7.706    	21.472    
6888.623    	7.747    	21.844    
7090.476    	7.784    	22.196    
7298.242    	7.818    	22.521    
7512.097    	7.852    	22.887    
7732.218    	7.880    	23.298    
7958.790    	7.916    	23.720    
8192.000    	7.951    	24.195    
8432.044    	7.990    	24.684    
8679.122    	8.038    	25.166    
8933.439    	8.086    	25.652    
9195.209    	8.140    	26.134    
9464.649    	8.185    	26.577    
9741.985    	8.229    	27.086    
10027.447    	8.279    	27.606    
10321.273    	8.337    	28.156    
10623.710    	8.395    	28.707    
10935.008    	8.453    	29.264    
11255.428    	8.513    	29.802    
11585.238    	8.577    	30.384    
11924.711    	8.642    	30.958    
12274.132    	8.713    	31.561    
12633.791    	8.785    	32.156    
13003.989    	8.861    	32.778    
13385.035    	8.944    	33.400    
13777.247    	9.030    	34.025    
14180.951    	9.119    	34.624    
14596.485    	9.211    	35.220    
15024.194    	9.298    	35.844    
15464.437    	9.386    	36.459    
15917.579    	9.476    	37.159    
16384.000    	9.583    	37.869    
16864.088    	9.696    	38.538    
17358.243    	9.814    	39.217    
17866.879    	9.933    	39.881    
18390.418    	10.048    	40.546    
18929.299    	10.181    	41.222    
19483.969    	10.313    	41.917    
20054.893    	10.449    	42.622    
20642.546    	10.586    	43.295    
