* This data was exported from the Dayton Audio Test System: DATS
*
* Piston Diameter = 95 mm
* f(s)= 109.2 Hz
* R(e)= 3.014 Ohms
* Z(max)= 11.35 Ohms
* Q(ms)= 2.115
* Q(es)= 0.7647
* Q(ts)= 0.5616
* V(as)= 2.917 liters     (0.103 cubic feet)
* L(e)= 0.1401 mH
* n(0)= 0.473 %
* SPL= 88.85 1W/1m
* M(ms)= 5.143 grams
* C(ms)= 0.413 mm/N
* BL= 3.729 
* K(r)= 0.03231 
* X(r)= 0.4881 
* K(i)= 0.004563 
* X(i)= 0.657 
*
*
Freq            Impedance       Phase
1.029    	3.004    	0.995    
1.059    	3.004    	0.995    
1.091    	3.004    	0.995    
1.122    	3.004    	0.995    
1.155    	3.004    	0.995    
1.189    	3.004    	0.995    
1.224    	3.004    	0.995    
1.260    	3.004    	0.995    
1.297    	3.004    	0.995    
1.335    	3.001    	1.163    
1.374    	3.001    	1.163    
1.414    	3.001    	1.163    
1.456    	3.001    	1.163    
1.498    	3.001    	1.163    
1.542    	3.001    	1.163    
1.587    	3.001    	1.163    
1.634    	3.001    	1.163    
1.682    	3.002    	1.309    
1.731    	3.002    	1.309    
1.782    	3.002    	1.309    
1.834    	3.002    	1.309    
1.888    	3.002    	1.309    
1.943    	3.002    	1.309    
2.000    	3.006    	1.515    
2.059    	3.006    	1.515    
2.119    	3.006    	1.515    
2.181    	3.006    	1.515    
2.245    	3.006    	1.515    
2.311    	3.006    	1.515    
2.378    	3.010    	1.777    
2.448    	3.010    	1.777    
2.520    	3.010    	1.777    
2.594    	3.010    	1.777    
2.670    	3.008    	2.096    
2.748    	3.008    	2.096    
2.828    	3.008    	2.096    
2.911    	3.008    	2.096    
2.997    	3.007    	2.387    
3.084    	3.007    	2.387    
3.175    	3.007    	2.387    
3.268    	3.007    	2.387    
3.364    	3.017    	2.689    
3.462    	3.017    	2.689    
3.564    	3.017    	2.689    
3.668    	3.024    	3.005    
3.775    	3.024    	3.005    
3.886    	3.024    	3.005    
4.000    	3.033    	3.322    
4.117    	3.033    	3.322    
4.238    	3.033    	3.322    
4.362    	3.026    	3.612    
4.490    	3.026    	3.612    
4.621    	3.026    	3.612    
4.757    	3.025    	3.860    
4.896    	3.025    	3.860    
5.040    	3.026    	4.096    
5.187    	3.026    	4.096    
5.339    	3.031    	4.325    
5.496    	3.031    	4.325    
5.657    	3.035    	4.531    
5.823    	3.035    	4.531    
5.993    	3.038    	4.716    
6.169    	3.038    	4.716    
6.350    	3.043    	4.909    
6.536    	3.043    	4.909    
6.727    	3.050    	5.141    
6.924    	3.050    	5.141    
7.127    	3.059    	5.402    
7.336    	3.067    	5.663    
7.551    	3.067    	5.663    
7.772    	3.073    	5.916    
8.000    	3.076    	6.165    
8.234    	3.076    	6.165    
8.476    	3.078    	6.410    
8.724    	3.080    	6.640    
8.980    	3.084    	6.846    
9.243    	3.084    	6.846    
9.514    	3.090    	7.041    
9.792    	3.095    	7.247    
10.079    	3.099    	7.468    
10.375    	3.103    	7.696    
10.679    	3.108    	7.919    
10.992    	3.114    	8.142    
11.314    	3.118    	8.373    
11.645    	3.122    	8.606    
11.986    	3.127    	8.828    
12.338    	3.135    	9.041    
12.699    	3.143    	9.254    
13.071    	3.150    	9.472    
13.454    	3.155    	9.690    
13.849    	3.158    	9.899    
14.254    	3.162    	10.105    
14.672    	3.167    	10.419    
15.102    	3.174    	10.729    
15.545    	3.181    	10.931    
16.000    	3.194    	11.233    
16.469    	3.205    	11.531    
16.951    	3.214    	11.824    
17.448    	3.224    	12.124    
17.959    	3.234    	12.427    
18.486    	3.245    	12.729    
19.027    	3.256    	13.029    
19.585    	3.273    	13.416    
20.159    	3.283    	13.704    
20.749    	3.290    	14.009    
21.357    	3.306    	14.414    
21.983    	3.322    	14.805    
22.627    	3.336    	15.176    
23.290    	3.347    	15.521    
23.973    	3.359    	15.873    
24.675    	3.377    	16.222    
25.398    	3.398    	16.586    
26.143    	3.416    	16.941    
26.909    	3.442    	17.416    
27.697    	3.467    	17.895    
28.509    	3.484    	18.287    
29.344    	3.503    	18.731    
30.204    	3.531    	19.212    
31.089    	3.551    	19.584    
32.000    	3.583    	20.006    
32.938    	3.617    	20.502    
33.903    	3.651    	21.045    
34.896    	3.684    	21.562    
35.919    	3.719    	22.029    
36.971    	3.756    	22.491    
38.055    	3.795    	22.993    
39.170    	3.840    	23.586    
40.317    	3.883    	24.097    
41.499    	3.928    	24.536    
42.715    	3.977    	24.971    
43.967    	4.034    	25.501    
45.255    	4.100    	26.079    
46.581    	4.167    	26.713    
47.946    	4.229    	27.319    
49.351    	4.284    	27.883    
50.797    	4.374    	28.289    
52.285    	4.471    	28.767    
53.817    	4.559    	29.374    
55.394    	4.660    	29.840    
57.018    	4.765    	30.223    
58.688    	4.873    	30.721    
60.408    	5.005    	31.215    
62.178    	5.151    	31.498    
64.000    	5.301    	31.940    
65.875    	5.458    	32.304    
67.806    	5.641    	32.429    
69.792    	5.856    	32.529    
71.838    	6.080    	32.665    
73.943    	6.315    	32.654    
76.109    	6.585    	32.414    
78.339    	6.900    	31.993    
80.635    	7.236    	31.283    
82.998    	7.614    	30.538    
85.430    	7.979    	29.457    
87.933    	8.444    	27.855    
90.510    	8.908    	26.141    
93.162    	9.361    	23.774    
95.892    	9.889    	20.549    
98.701    	10.390    	16.911    
101.594    	10.800    	13.076    
104.571    	11.098    	8.429    
107.635    	11.311    	3.656    
110.789    	11.334    	-1.327    
114.035    	11.243    	-6.199    
117.377    	11.040    	-10.455    
120.816    	10.709    	-14.736    
124.356    	10.322    	-19.039    
128.000    	9.881    	-22.449    
131.751    	9.363    	-25.622    
135.611    	8.857    	-28.067    
139.585    	8.370    	-30.084    
143.675    	7.928    	-31.781    
147.885    	7.483    	-32.870    
152.219    	7.087    	-33.731    
156.679    	6.718    	-34.265    
161.270    	6.386    	-34.518    
165.995    	6.067    	-34.508    
170.860    	5.800    	-34.473    
175.866    	5.547    	-34.000    
181.019    	5.320    	-33.503    
186.324    	5.116    	-33.073    
191.783    	4.926    	-32.163    
197.403    	4.747    	-31.445    
203.187    	4.608    	-30.685    
209.141    	4.469    	-29.679    
215.269    	4.338    	-28.885    
221.577    	4.225    	-27.784    
228.070    	4.114    	-26.812    
234.753    	4.033    	-25.783    
241.632    	3.940    	-24.692    
248.712    	3.869    	-23.683    
256.000    	3.798    	-22.543    
263.501    	3.745    	-21.531    
271.223    	3.685    	-20.592    
279.170    	3.633    	-19.564    
287.350    	3.579    	-18.539    
295.770    	3.534    	-17.418    
304.437    	3.498    	-16.355    
313.358    	3.465    	-15.308    
322.540    	3.439    	-14.245    
331.991    	3.413    	-13.291    
341.719    	3.389    	-12.288    
351.732    	3.369    	-11.341    
362.039    	3.350    	-10.391    
372.647    	3.334    	-9.505    
383.567    	3.322    	-8.569    
394.806    	3.309    	-7.677    
406.375    	3.299    	-6.753    
418.282    	3.287    	-5.874    
430.539    	3.281    	-4.986    
443.155    	3.274    	-4.179    
456.140    	3.271    	-3.334    
469.506    	3.269    	-2.452    
483.264    	3.265    	-1.618    
497.424    	3.265    	-0.783    
512.000    	3.270    	0.152    
527.003    	3.273    	1.014    
542.445    	3.280    	1.873    
558.340    	3.287    	2.659    
574.701    	3.294    	3.446    
591.541    	3.309    	4.292    
608.874    	3.321    	5.117    
626.715    	3.334    	5.935    
645.080    	3.349    	6.789    
663.982    	3.370    	7.576    
683.438    	3.389    	8.378    
703.464    	3.416    	9.184    
724.077    	3.442    	9.939    
745.294    	3.475    	10.752    
767.133    	3.514    	11.463    
789.612    	3.558    	12.233    
812.749    	3.605    	12.839    
836.565    	3.662    	13.447    
861.078    	3.726    	13.802    
886.309    	3.792    	13.965    
912.280    	3.848    	13.760    
939.012    	3.879    	13.315    
966.527    	3.877    	12.988    
994.849    	3.855    	13.069    
1024.000    	3.828    	13.474    
1054.005    	3.821    	14.264    
1084.890    	3.836    	15.252    
1116.680    	3.881    	16.200    
1149.401    	3.955    	16.880    
1183.081    	4.037    	17.033    
1217.748    	4.118    	16.655    
1253.431    	4.138    	15.770    
1290.159    	4.099    	15.202    
1327.964    	4.033    	15.258    
1366.876    	3.988    	16.020    
1406.929    	3.975    	17.008    
1448.155    	3.985    	17.977    
1490.589    	4.004    	18.805    
1534.266    	4.022    	19.573    
1579.224    	4.049    	20.432    
1625.499    	4.082    	21.229    
1673.129    	4.119    	21.965    
1722.156    	4.161    	22.671    
1772.619    	4.206    	23.351    
1824.561    	4.251    	24.017    
1878.024    	4.300    	24.646    
1933.055    	4.351    	25.206    
1989.697    	4.407    	25.814    
2048.000    	4.458    	26.309    
2108.011    	4.520    	26.865    
2169.780    	4.586    	27.353    
2233.360    	4.652    	27.705    
2298.802    	4.722    	27.932    
2366.162    	4.768    	27.987    
2435.496    	4.792    	28.286    
2506.862    	4.823    	28.911    
2580.318    	4.879    	29.545    
2655.927    	4.943    	30.119    
2733.752    	5.013    	30.588    
2813.857    	5.083    	30.963    
2896.309    	5.147    	31.359    
2981.178    	5.212    	31.744    
3068.533    	5.276    	32.093    
3158.448    	5.341    	32.511    
3250.997    	5.412    	32.965    
3346.259    	5.488    	33.431    
3444.312    	5.571    	33.839    
3545.238    	5.658    	34.210    
3649.121    	5.754    	34.498    
3756.049    	5.850    	34.691    
3866.109    	5.939    	34.769    
3979.395    	6.021    	34.776    
4096.000    	6.079    	34.776    
4216.022    	6.123    	34.924    
4339.561    	6.164    	35.331    
4466.720    	6.224    	35.831    
4597.605    	6.301    	36.347    
4732.325    	6.389    	36.842    
4870.992    	6.483    	37.296    
5013.723    	6.584    	37.699    
5160.637    	6.685    	38.044    
5311.855    	6.792    	38.400    
5467.504    	6.903    	38.706    
5627.714    	7.011    	38.978    
5792.619    	7.122    	39.228    
5962.355    	7.235    	39.488    
6137.066    	7.340    	39.713    
6316.896    	7.454    	39.981    
6501.995    	7.569    	40.209    
6692.518    	7.691    	40.465    
6888.623    	7.815    	40.693    
7090.476    	7.939    	40.859    
7298.242    	8.067    	41.011    
7512.097    	8.189    	41.156    
7732.218    	8.311    	41.309    
7958.790    	8.437    	41.478    
8192.000    	8.564    	41.688    
8432.044    	8.696    	41.857    
8679.122    	8.836    	42.032    
8933.439    	8.975    	42.178    
9195.209    	9.117    	42.321    
9464.649    	9.259    	42.416    
9741.985    	9.397    	42.540    
10027.447    	9.538    	42.647    
10321.273    	9.681    	42.778    
10623.710    	9.826    	42.918    
10935.008    	9.976    	43.060    
11255.428    	10.125    	43.187    
11585.238    	10.284    	43.295    
11924.711    	10.440    	43.415    
12274.132    	10.599    	43.522    
12633.791    	10.763    	43.612    
13003.989    	10.927    	43.713    
13385.035    	11.094    	43.764    
13777.247    	11.262    	43.879    
14180.951    	11.431    	43.965    
14596.485    	11.599    	44.050    
15024.194    	11.772    	44.132    
15464.437    	11.943    	44.208    
15917.579    	12.120    	44.291    
16384.000    	12.299    	44.383    
16864.088    	12.477    	44.460    
17358.243    	12.654    	44.544    
17866.879    	12.840    	44.634    
18390.418    	13.019    	44.708    
18929.299    	13.193    	44.810    
19483.969    	13.373    	44.888    
20054.893    	13.552    	44.969    
20642.546    	13.733    	45.095    
