* This data was exported from the Dayton Audio Test System: DATS
*
* Piston Diameter = 25 mm
* f(s)= 2196 Hz
* R(e)= 5.57 Ohms
* Z(max)= 6.276 Ohms
* Q(ms)= 1.812
* Q(es)= 14.3
* Q(ts)= 1.609
* V(as)= 0 liters     (0 cubic feet)
* L(e)= 0 mH
* n(0)= 0 %
* SPL= 0 1W/1m
* M(ms)= 0 grams
* C(ms)= 0 mm/N
* BL= 0 
* K(r)= 3.877 
* X(r)= 0.04003 
* K(i)= 1.9e-06 
* X(i)= 1.231 
*
*
Freq            Impedance       Phase
1.029    	5.574    	-0.106    
1.059    	5.574    	-0.106    
1.091    	5.574    	-0.106    
1.122    	5.574    	-0.106    
1.155    	5.574    	-0.106    
1.189    	5.574    	-0.106    
1.224    	5.574    	-0.106    
1.260    	5.574    	-0.106    
1.297    	5.574    	-0.106    
1.335    	5.567    	-0.125    
1.374    	5.567    	-0.125    
1.414    	5.567    	-0.125    
1.456    	5.567    	-0.125    
1.498    	5.567    	-0.125    
1.542    	5.567    	-0.125    
1.587    	5.567    	-0.125    
1.634    	5.567    	-0.125    
1.682    	5.563    	-0.118    
1.731    	5.563    	-0.118    
1.782    	5.563    	-0.118    
1.834    	5.563    	-0.118    
1.888    	5.563    	-0.118    
1.943    	5.563    	-0.118    
2.000    	5.564    	-0.116    
2.059    	5.564    	-0.116    
2.119    	5.564    	-0.116    
2.181    	5.564    	-0.116    
2.245    	5.564    	-0.116    
2.311    	5.564    	-0.116    
2.378    	5.567    	-0.128    
2.448    	5.567    	-0.128    
2.520    	5.567    	-0.128    
2.594    	5.567    	-0.128    
2.670    	5.569    	-0.105    
2.748    	5.569    	-0.105    
2.828    	5.569    	-0.105    
2.911    	5.569    	-0.105    
2.997    	5.567    	-0.087    
3.084    	5.567    	-0.087    
3.175    	5.567    	-0.087    
3.268    	5.567    	-0.087    
3.364    	5.571    	-0.038    
3.462    	5.571    	-0.038    
3.564    	5.571    	-0.038    
3.668    	5.566    	-0.001    
3.775    	5.566    	-0.001    
3.886    	5.566    	-0.001    
4.000    	5.567    	0.034    
4.117    	5.567    	0.034    
4.238    	5.567    	0.034    
4.362    	5.564    	0.073    
4.490    	5.564    	0.073    
4.621    	5.564    	0.073    
4.757    	5.566    	0.094    
4.896    	5.566    	0.094    
5.040    	5.570    	0.117    
5.187    	5.570    	0.117    
5.339    	5.574    	0.131    
5.496    	5.574    	0.131    
5.657    	5.576    	0.131    
5.823    	5.576    	0.131    
5.993    	5.576    	0.132    
6.169    	5.576    	0.132    
6.350    	5.575    	0.123    
6.536    	5.575    	0.123    
6.727    	5.573    	0.111    
6.924    	5.573    	0.111    
7.127    	5.571    	0.106    
7.336    	5.570    	0.106    
7.551    	5.570    	0.106    
7.772    	5.569    	0.108    
8.000    	5.569    	0.104    
8.234    	5.569    	0.104    
8.476    	5.569    	0.102    
8.724    	5.569    	0.109    
8.980    	5.569    	0.113    
9.243    	5.569    	0.113    
9.514    	5.570    	0.109    
9.792    	5.569    	0.105    
10.079    	5.569    	0.099    
10.375    	5.569    	0.089    
10.679    	5.569    	0.080    
10.992    	5.569    	0.074    
11.314    	5.569    	0.069    
11.645    	5.569    	0.061    
11.986    	5.569    	0.054    
12.338    	5.569    	0.054    
12.699    	5.570    	0.054    
13.071    	5.571    	0.048    
13.454    	5.572    	0.044    
13.849    	5.572    	0.045    
14.254    	5.573    	0.049    
14.672    	5.573    	0.049    
15.102    	5.574    	0.054    
15.545    	5.574    	0.062    
16.000    	5.575    	0.074    
16.469    	5.575    	0.090    
16.951    	5.576    	0.097    
17.448    	5.576    	0.100    
17.959    	5.577    	0.106    
18.486    	5.577    	0.110    
19.027    	5.576    	0.113    
19.585    	5.576    	0.118    
20.159    	5.576    	0.123    
20.749    	5.576    	0.129    
21.357    	5.575    	0.135    
21.983    	5.574    	0.135    
22.627    	5.574    	0.137    
23.290    	5.574    	0.137    
23.973    	5.573    	0.131    
24.675    	5.573    	0.123    
25.398    	5.572    	0.119    
26.143    	5.573    	0.111    
26.909    	5.573    	0.102    
27.697    	5.574    	0.094    
28.509    	5.574    	0.092    
29.344    	5.575    	0.104    
30.204    	5.575    	0.122    
31.089    	5.576    	0.134    
32.000    	5.576    	0.146    
32.938    	5.576    	0.163    
33.903    	5.575    	0.182    
34.896    	5.575    	0.195    
35.919    	5.574    	0.197    
36.971    	5.573    	0.196    
38.055    	5.573    	0.188    
39.170    	5.574    	0.166    
40.317    	5.574    	0.153    
41.499    	5.575    	0.155    
42.715    	5.576    	0.150    
43.967    	5.579    	0.167    
45.255    	5.579    	0.199    
46.581    	5.576    	0.228    
47.946    	5.576    	0.236    
49.351    	5.582    	0.319    
50.797    	5.578    	0.318    
52.285    	5.575    	0.252    
53.817    	5.577    	0.227    
55.394    	5.577    	0.233    
57.018    	5.579    	0.244    
58.688    	5.579    	0.272    
60.408    	5.576    	0.298    
62.178    	5.576    	0.288    
64.000    	5.575    	0.298    
65.875    	5.572    	0.307    
67.806    	5.571    	0.281    
69.792    	5.575    	0.289    
71.838    	5.577    	0.303    
73.943    	5.575    	0.321    
76.109    	5.577    	0.357    
78.339    	5.576    	0.367    
80.635    	5.577    	0.366    
82.998    	5.577    	0.344    
85.430    	5.578    	0.360    
87.933    	5.578    	0.400    
90.510    	5.577    	0.446    
93.162    	5.576    	0.433    
95.892    	5.576    	0.414    
98.701    	5.585    	0.426    
101.594    	5.585    	0.464    
104.571    	5.581    	0.459    
107.635    	5.578    	0.472    
110.789    	5.577    	0.442    
114.035    	5.580    	0.463    
117.377    	5.581    	0.512    
120.816    	5.581    	0.524    
124.356    	5.580    	0.547    
128.000    	5.582    	0.538    
131.751    	5.580    	0.585    
135.611    	5.578    	0.576    
139.585    	5.580    	0.557    
143.675    	5.582    	0.607    
147.885    	5.582    	0.655    
152.219    	5.581    	0.632    
156.679    	5.583    	0.649    
161.270    	5.580    	0.714    
165.995    	5.580    	0.698    
170.860    	5.583    	0.722    
175.866    	5.582    	0.734    
181.019    	5.582    	0.757    
186.324    	5.584    	0.824    
191.783    	5.582    	0.823    
197.403    	5.585    	0.819    
203.187    	5.587    	0.858    
209.141    	5.587    	0.874    
215.269    	5.587    	0.923    
221.577    	5.586    	0.932    
228.070    	5.587    	0.946    
234.753    	5.586    	0.958    
241.632    	5.589    	0.998    
248.712    	5.590    	1.028    
256.000    	5.591    	1.070    
263.501    	5.590    	1.084    
271.223    	5.589    	1.109    
279.170    	5.592    	1.141    
287.350    	5.591    	1.170    
295.770    	5.593    	1.214    
304.437    	5.594    	1.248    
313.358    	5.596    	1.262    
322.540    	5.595    	1.329    
331.991    	5.596    	1.346    
341.719    	5.597    	1.387    
351.732    	5.597    	1.431    
362.039    	5.597    	1.491    
372.647    	5.598    	1.519    
383.567    	5.602    	1.547    
394.806    	5.602    	1.587    
406.375    	5.602    	1.639    
418.282    	5.605    	1.685    
430.539    	5.605    	1.717    
443.155    	5.609    	1.779    
456.140    	5.610    	1.810    
469.506    	5.610    	1.872    
483.264    	5.611    	1.938    
497.424    	5.613    	1.973    
512.000    	5.614    	2.016    
527.003    	5.616    	2.085    
542.445    	5.619    	2.145    
558.340    	5.621    	2.183    
574.701    	5.622    	2.253    
591.541    	5.624    	2.325    
608.874    	5.625    	2.386    
626.715    	5.629    	2.450    
645.080    	5.630    	2.505    
663.982    	5.634    	2.591    
683.438    	5.640    	2.662    
703.464    	5.642    	2.721    
724.077    	5.644    	2.783    
745.294    	5.646    	2.870    
767.133    	5.651    	2.960    
789.612    	5.655    	3.040    
812.749    	5.658    	3.116    
836.565    	5.662    	3.197    
861.078    	5.665    	3.289    
886.309    	5.669    	3.371    
912.280    	5.676    	3.483    
939.012    	5.681    	3.563    
966.527    	5.688    	3.664    
994.849    	5.695    	3.826    
1024.000    	5.699    	3.900    
1054.005    	5.705    	3.995    
1084.890    	5.713    	4.106    
1116.680    	5.722    	4.199    
1149.401    	5.731    	4.325    
1183.081    	5.738    	4.453    
1217.748    	5.752    	4.573    
1253.431    	5.760    	4.700    
1290.159    	5.773    	4.830    
1327.964    	5.789    	4.939    
1366.876    	5.804    	5.080    
1406.929    	5.819    	5.219    
1448.155    	5.835    	5.319    
1490.589    	5.855    	5.445    
1534.266    	5.880    	5.546    
1579.224    	5.903    	5.678    
1625.499    	5.932    	5.772    
1673.129    	5.960    	5.839    
1722.156    	5.992    	5.909    
1772.619    	6.030    	5.918    
1824.561    	6.069    	5.903    
1878.024    	6.109    	5.825    
1933.055    	6.149    	5.685    
1989.697    	6.190    	5.480    
2048.000    	6.227    	5.127    
2108.011    	6.257    	4.705    
2169.780    	6.272    	4.235    
2233.360    	6.275    	3.720    
2298.802    	6.262    	3.224    
2366.162    	6.233    	2.786    
2435.496    	6.188    	2.432    
2506.862    	6.137    	2.222    
2580.318    	6.085    	2.132    
2655.927    	6.032    	2.153    
2733.752    	5.982    	2.319    
2813.857    	5.943    	2.592    
2896.309    	5.907    	2.943    
2981.178    	5.881    	3.373    
3068.533    	5.868    	3.839    
3158.448    	5.865    	4.346    
3250.997    	5.874    	4.874    
3346.259    	5.901    	5.405    
3444.312    	5.952    	5.840    
3545.238    	6.022    	6.081    
3649.121    	6.100    	6.005    
3756.049    	6.160    	5.501    
3866.109    	6.174    	4.807    
3979.395    	6.140    	4.240    
4096.000    	6.085    	3.977    
4216.022    	6.033    	3.967    
4339.561    	5.986    	4.112    
4466.720    	5.948    	4.394    
4597.605    	5.925    	4.697    
4732.325    	5.903    	5.027    
4870.992    	5.890    	5.356    
5013.723    	5.881    	5.681    
5160.637    	5.875    	6.041    
5311.855    	5.873    	6.378    
5467.504    	5.871    	6.726    
5627.714    	5.870    	7.054    
5792.619    	5.875    	7.395    
5962.355    	5.878    	7.779    
6137.066    	5.882    	8.040    
6316.896    	5.889    	8.307    
6501.995    	5.889    	8.683    
6692.518    	5.900    	9.053    
6888.623    	5.914    	9.414    
7090.476    	5.927    	9.682    
7298.242    	5.934    	9.957    
7512.097    	5.938    	10.289    
7732.218    	5.945    	10.669    
7958.790    	5.957    	11.030    
8192.000    	5.972    	11.375    
8432.044    	5.985    	11.740    
8679.122    	5.997    	12.097    
8933.439    	6.014    	12.483    
9195.209    	6.036    	12.850    
9464.649    	6.054    	13.231    
9741.985    	6.071    	13.610    
10027.447    	6.087    	13.984    
10321.273    	6.104    	14.386    
10623.710    	6.126    	14.756    
10935.008    	6.148    	15.152    
11255.428    	6.172    	15.560    
11585.238    	6.196    	16.000    
11924.711    	6.220    	16.419    
12274.132    	6.246    	16.833    
12633.791    	6.274    	17.264    
13003.989    	6.302    	17.686    
13385.035    	6.333    	18.128    
13777.247    	6.368    	18.561    
14180.951    	6.404    	19.018    
14596.485    	6.447    	19.431    
15024.194    	6.484    	19.853    
15464.437    	6.531    	20.215    
15917.579    	6.566    	20.534    
16384.000    	6.591    	20.890    
16864.088    	6.615    	21.343    
17358.243    	6.647    	21.811    
17866.879    	6.685    	22.321    
18390.418    	6.726    	22.836    
18929.299    	6.768    	23.359    
19483.969    	6.816    	23.830    
20054.893    	6.865    	24.348    
20642.546    	6.912    	24.820    
