* This data was exported from the Dayton Audio Test System: DATS
*
* Piston Diameter = 95 mm
* f(s)= 81.89 Hz
* R(e)= 5.743 Ohms
* Z(max)= 58.23 Ohms
* Q(ms)= 9.493
* Q(es)= 1.039
* Q(ts)= 0.9362
* V(as)= 3.249 liters     (0.1147 cubic feet)
* L(e)= 0.5758 mH
* n(0)= 0.1638 %
* SPL= 84.24 1W/1m
* M(ms)= 8.203 grams
* C(ms)= 0.46 mm/N
* BL= 4.831 
* K(r)= 0.1038 
* X(r)= 0.4678 
* K(i)= 0.01497 
* X(i)= 0.6484 
*
*
Freq            Impedance       Phase
1.029    	5.765    	1.073    
1.059    	5.765    	1.073    
1.091    	5.765    	1.073    
1.122    	5.765    	1.073    
1.155    	5.765    	1.073    
1.189    	5.765    	1.073    
1.224    	5.765    	1.073    
1.260    	5.765    	1.073    
1.297    	5.765    	1.073    
1.335    	5.756    	1.175    
1.374    	5.756    	1.175    
1.414    	5.756    	1.175    
1.456    	5.756    	1.175    
1.498    	5.756    	1.175    
1.542    	5.756    	1.175    
1.587    	5.756    	1.175    
1.634    	5.756    	1.175    
1.682    	5.747    	1.304    
1.731    	5.747    	1.304    
1.782    	5.747    	1.304    
1.834    	5.747    	1.304    
1.888    	5.747    	1.304    
1.943    	5.747    	1.304    
2.000    	5.741    	1.503    
2.059    	5.741    	1.503    
2.119    	5.741    	1.503    
2.181    	5.741    	1.503    
2.245    	5.741    	1.503    
2.311    	5.741    	1.503    
2.378    	5.738    	1.742    
2.448    	5.738    	1.742    
2.520    	5.738    	1.742    
2.594    	5.738    	1.742    
2.670    	5.734    	2.017    
2.748    	5.734    	2.017    
2.828    	5.734    	2.017    
2.911    	5.734    	2.017    
2.997    	5.736    	2.292    
3.084    	5.736    	2.292    
3.175    	5.736    	2.292    
3.268    	5.736    	2.292    
3.364    	5.747    	2.595    
3.462    	5.747    	2.595    
3.564    	5.747    	2.595    
3.668    	5.752    	2.909    
3.775    	5.752    	2.909    
3.886    	5.752    	2.909    
4.000    	5.756    	3.204    
4.117    	5.756    	3.204    
4.238    	5.756    	3.204    
4.362    	5.751    	3.466    
4.490    	5.751    	3.466    
4.621    	5.751    	3.466    
4.757    	5.755    	3.708    
4.896    	5.755    	3.708    
5.040    	5.760    	3.952    
5.187    	5.760    	3.952    
5.339    	5.763    	4.197    
5.496    	5.763    	4.197    
5.657    	5.763    	4.435    
5.823    	5.763    	4.435    
5.993    	5.763    	4.668    
6.169    	5.763    	4.668    
6.350    	5.767    	4.909    
6.536    	5.767    	4.909    
6.727    	5.775    	5.167    
6.924    	5.775    	5.167    
7.127    	5.783    	5.433    
7.336    	5.790    	5.690    
7.551    	5.790    	5.690    
7.772    	5.794    	5.934    
8.000    	5.799    	6.167    
8.234    	5.799    	6.167    
8.476    	5.803    	6.398    
8.724    	5.805    	6.634    
8.980    	5.804    	6.875    
9.243    	5.804    	6.875    
9.514    	5.805    	7.125    
9.792    	5.810    	7.395    
10.079    	5.819    	7.687    
10.375    	5.830    	7.987    
10.679    	5.838    	8.276    
10.992    	5.845    	8.542    
11.314    	5.852    	8.789    
11.645    	5.859    	9.022    
11.986    	5.868    	9.247    
12.338    	5.874    	9.463    
12.699    	5.878    	9.673    
13.071    	5.881    	9.888    
13.454    	5.884    	10.119    
13.849    	5.888    	10.366    
14.254    	5.892    	10.624    
14.672    	5.901    	11.026    
15.102    	5.914    	11.441    
15.545    	5.926    	11.721    
16.000    	5.946    	12.114    
16.469    	5.967    	12.475    
16.951    	5.988    	12.804    
17.448    	6.005    	13.119    
17.959    	6.014    	13.443    
18.486    	6.020    	13.801    
19.027    	6.025    	14.214    
19.585    	6.035    	14.824    
20.159    	6.048    	15.309    
20.749    	6.071    	15.779    
21.357    	6.112    	16.332    
21.983    	6.150    	16.777    
22.627    	6.180    	17.155    
23.290    	6.203    	17.525    
23.973    	6.211    	17.958    
24.675    	6.213    	18.503    
25.398    	6.229    	19.154    
26.143    	6.261    	19.865    
26.909    	6.323    	20.700    
27.697    	6.392    	21.375    
28.509    	6.442    	21.777    
29.344    	6.480    	22.216    
30.204    	6.495    	22.825    
31.089    	6.506    	23.520    
32.000    	6.541    	24.444    
32.938    	6.615    	25.473    
33.903    	6.729    	26.429    
34.896    	6.846    	27.165    
35.919    	6.935    	27.759    
36.971    	6.985    	28.388    
38.055    	7.013    	29.215    
39.170    	7.063    	30.521    
40.317    	7.166    	31.999    
41.499    	7.331    	33.270    
42.715    	7.535    	34.178    
43.967    	7.720    	34.906    
45.255    	7.872    	35.546    
46.581    	7.972    	36.569    
47.946    	8.077    	38.248    
49.351    	8.253    	40.227    
50.797    	8.625    	42.283    
52.285    	9.097    	43.791    
53.817    	9.566    	44.797    
55.394    	10.004    	45.583    
57.018    	10.298    	46.422    
58.688    	10.596    	47.983    
60.408    	11.156    	51.009    
62.178    	12.131    	54.768    
64.000    	13.549    	58.084    
65.875    	15.654    	60.364    
67.806    	18.666    	60.777    
69.792    	22.628    	58.948    
71.838    	27.541    	55.018    
73.943    	33.410    	48.741    
76.109    	40.931    	38.709    
78.339    	49.803    	23.633    
80.635    	56.766    	3.705    
82.998    	56.386    	-19.667    
85.430    	47.032    	-41.657    
87.933    	34.026    	-55.882    
90.510    	25.024    	-58.499    
93.162    	20.599    	-56.955    
95.892    	17.629    	-55.944    
98.701    	15.692    	-54.994    
101.594    	14.203    	-53.658    
104.571    	12.899    	-52.556    
107.635    	11.978    	-51.388    
110.789    	11.169    	-49.542    
114.035    	10.455    	-48.089    
117.377    	9.951    	-46.672    
120.816    	9.451    	-44.603    
124.356    	8.969    	-42.819    
128.000    	8.615    	-41.109    
131.751    	8.327    	-39.788    
135.611    	8.153    	-37.856    
139.585    	7.874    	-35.561    
143.675    	7.672    	-33.905    
147.885    	7.458    	-31.592    
152.219    	7.228    	-30.737    
156.679    	7.318    	-28.985    
161.270    	7.101    	-24.902    
165.995    	6.709    	-24.492    
170.860    	6.791    	-24.472    
175.866    	6.802    	-22.254    
181.019    	6.708    	-20.014    
186.324    	6.593    	-19.693    
191.783    	6.642    	-18.387    
197.403    	6.508    	-16.881    
203.187    	6.401    	-15.978    
209.141    	6.427    	-14.699    
215.269    	6.361    	-13.182    
221.577    	6.316    	-11.898    
228.070    	6.314    	-10.784    
234.753    	6.321    	-9.700    
241.632    	6.278    	-8.592    
248.712    	6.277    	-7.518    
256.000    	6.279    	-6.701    
263.501    	6.254    	-5.718    
271.223    	6.248    	-4.578    
279.170    	6.267    	-3.630    
287.350    	6.264    	-2.712    
295.770    	6.269    	-1.732    
304.437    	6.283    	-0.862    
313.358    	6.294    	0.050    
322.540    	6.307    	0.916    
331.991    	6.326    	1.788    
341.719    	6.346    	2.660    
351.732    	6.367    	3.471    
362.039    	6.390    	4.263    
372.647    	6.422    	5.076    
383.567    	6.452    	5.876    
394.806    	6.483    	6.604    
406.375    	6.517    	7.344    
418.282    	6.557    	8.108    
430.539    	6.598    	8.749    
443.155    	6.638    	9.418    
456.140    	6.677    	10.063    
469.506    	6.715    	10.687    
483.264    	6.752    	11.283    
497.424    	6.782    	11.925    
512.000    	6.820    	12.567    
527.003    	6.864    	13.265    
542.445    	6.913    	13.902    
558.340    	6.958    	14.584    
574.701    	7.007    	15.206    
591.541    	7.058    	15.837    
608.874    	7.112    	16.447    
626.715    	7.165    	17.075    
645.080    	7.220    	17.707    
663.982    	7.280    	18.315    
683.438    	7.344    	18.917    
703.464    	7.408    	19.521    
724.077    	7.474    	20.115    
745.294    	7.547    	20.687    
767.133    	7.619    	21.270    
789.612    	7.694    	21.850    
812.749    	7.777    	22.420    
836.565    	7.870    	22.993    
861.078    	7.978    	23.505    
886.309    	8.073    	23.694    
912.280    	8.119    	23.977    
939.012    	8.186    	24.545    
966.527    	8.270    	25.016    
994.849    	8.350    	25.502    
1024.000    	8.431    	25.986    
1054.005    	8.508    	26.401    
1084.890    	8.595    	26.974    
1116.680    	8.688    	27.421    
1149.401    	8.776    	27.954    
1183.081    	8.875    	28.455    
1217.748    	8.979    	28.936    
1253.431    	9.085    	29.431    
1290.159    	9.193    	29.903    
1327.964    	9.303    	30.362    
1366.876    	9.421    	30.797    
1406.929    	9.538    	31.255    
1448.155    	9.664    	31.669    
1490.589    	9.778    	32.056    
1534.266    	9.906    	32.459    
1579.224    	10.032    	32.912    
1625.499    	10.159    	33.318    
1673.129    	10.293    	33.767    
1722.156    	10.431    	34.176    
1772.619    	10.573    	34.562    
1824.561    	10.723    	34.971    
1878.024    	10.874    	35.345    
1933.055    	11.027    	35.686    
1989.697    	11.180    	36.059    
2048.000    	11.338    	36.449    
2108.011    	11.506    	36.792    
2169.780    	11.680    	37.156    
2233.360    	11.856    	37.485    
2298.802    	12.037    	37.799    
2366.162    	12.223    	38.096    
2435.496    	12.413    	38.379    
2506.862    	12.609    	38.639    
2580.318    	12.804    	38.851    
2655.927    	13.002    	39.064    
2733.752    	13.195    	39.244    
2813.857    	13.386    	39.400    
2896.309    	13.568    	39.579    
2981.178    	13.742    	39.800    
3068.533    	13.919    	40.086    
3158.448    	14.132    	40.372    
3250.997    	14.330    	40.569    
3346.259    	14.515    	40.851    
3444.312    	14.720    	41.174    
3545.238    	14.944    	41.485    
3649.121    	15.175    	41.787    
3756.049    	15.412    	42.073    
3866.109    	15.659    	42.351    
3979.395    	15.911    	42.617    
4096.000    	16.170    	42.845    
4216.022    	16.432    	43.078    
4339.561    	16.702    	43.307    
4466.720    	16.979    	43.512    
4597.605    	17.257    	43.713    
4732.325    	17.540    	43.917    
4870.992    	17.835    	44.107    
5013.723    	18.133    	44.303    
5160.637    	18.443    	44.459    
5311.855    	18.759    	44.600    
5467.504    	19.079    	44.697    
5627.714    	19.382    	44.772    
5792.619    	19.681    	44.956    
5962.355    	20.026    	45.189    
6137.066    	20.417    	45.316    
6316.896    	20.810    	45.300    
6501.995    	21.198    	45.139    
6692.518    	21.505    	44.827    
6888.623    	21.683    	44.724    
7090.476    	21.906    	44.979    
7298.242    	22.225    	45.246    
7512.097    	22.562    	45.362    
7732.218    	22.842    	45.535    
7958.790    	23.179    	45.844    
8192.000    	23.557    	46.108    
8432.044    	23.956    	46.312    
8679.122    	24.363    	46.481    
8933.439    	24.776    	46.626    
9195.209    	25.192    	46.766    
9464.649    	25.615    	46.889    
9741.985    	26.044    	47.005    
10027.447    	26.481    	47.097    
10321.273    	26.922    	47.178    
10623.710    	27.359    	47.276    
10935.008    	27.812    	47.374    
11255.428    	28.266    	47.448    
11585.238    	28.730    	47.530    
11924.711    	29.207    	47.617    
12274.132    	29.703    	47.687    
12633.791    	30.183    	47.736    
13003.989    	30.674    	47.817    
13385.035    	31.179    	47.879    
13777.247    	31.691    	47.935    
14180.951    	32.200    	47.989    
14596.485    	32.718    	48.046    
15024.194    	33.245    	48.104    
15464.437    	33.782    	48.146    
15917.579    	34.327    	48.212    
16384.000    	34.877    	48.262    
16864.088    	35.436    	48.314    
17358.243    	35.985    	48.370    
17866.879    	36.501    	48.424    
18390.418    	36.982    	48.491    
18929.299    	37.445    	48.559    
19483.969    	37.871    	48.665    
20054.893    	38.258    	48.800    
20642.546    	38.556    	49.031    
