* This data was exported from the Dayton Audio Test System: DATS
*
* Piston Diameter = 25 mm
* f(s)= 1638 Hz
* R(e)= 3.65 Ohms
* Z(max)= 6.465 Ohms
* Q(ms)= 4.477
* Q(es)= 5.805
* Q(ts)= 2.528
* V(as)= 0 liters     (0 cubic feet)
* L(e)= 0.1035 mH
* n(0)= 0 %
* SPL= 0 1W/1m
* M(ms)= 0 grams
* C(ms)= 0 mm/N
* BL= 0 
* K(r)= 2.239 
* X(r)= 0.05067 
* K(i)= 3e-07 
* X(i)= 1.331 
*
*
Freq            Impedance       Phase
1.029    	3.667    	0.408    
1.059    	3.667    	0.408    
1.091    	3.667    	0.408    
1.122    	3.667    	0.408    
1.155    	3.667    	0.408    
1.189    	3.667    	0.408    
1.224    	3.667    	0.408    
1.260    	3.667    	0.408    
1.297    	3.667    	0.408    
1.335    	3.660    	0.385    
1.374    	3.660    	0.385    
1.414    	3.660    	0.385    
1.456    	3.660    	0.385    
1.498    	3.660    	0.385    
1.542    	3.660    	0.385    
1.587    	3.660    	0.385    
1.634    	3.660    	0.385    
1.682    	3.656    	0.367    
1.731    	3.656    	0.367    
1.782    	3.656    	0.367    
1.834    	3.656    	0.367    
1.888    	3.656    	0.367    
1.943    	3.656    	0.367    
2.000    	3.657    	0.359    
2.059    	3.657    	0.359    
2.119    	3.657    	0.359    
2.181    	3.657    	0.359    
2.245    	3.657    	0.359    
2.311    	3.657    	0.359    
2.378    	3.659    	0.351    
2.448    	3.659    	0.351    
2.520    	3.659    	0.351    
2.594    	3.659    	0.351    
2.670    	3.662    	0.288    
2.748    	3.662    	0.288    
2.828    	3.662    	0.288    
2.911    	3.662    	0.288    
2.997    	3.661    	0.236    
3.084    	3.661    	0.236    
3.175    	3.661    	0.236    
3.268    	3.661    	0.236    
3.364    	3.665    	0.193    
3.462    	3.665    	0.193    
3.564    	3.665    	0.193    
3.668    	3.659    	0.192    
3.775    	3.659    	0.192    
3.886    	3.659    	0.192    
4.000    	3.660    	0.188    
4.117    	3.660    	0.188    
4.238    	3.660    	0.188    
4.362    	3.653    	0.164    
4.490    	3.653    	0.164    
4.621    	3.653    	0.164    
4.757    	3.655    	0.143    
4.896    	3.655    	0.143    
5.040    	3.656    	0.112    
5.187    	3.656    	0.112    
5.339    	3.661    	0.089    
5.496    	3.661    	0.089    
5.657    	3.664    	0.074    
5.823    	3.664    	0.074    
5.993    	3.663    	0.054    
6.169    	3.663    	0.054    
6.350    	3.662    	0.043    
6.536    	3.662    	0.043    
6.727    	3.661    	0.041    
6.924    	3.661    	0.041    
7.127    	3.660    	0.039    
7.336    	3.660    	0.030    
7.551    	3.660    	0.030    
7.772    	3.659    	0.017    
8.000    	3.658    	0.013    
8.234    	3.658    	0.013    
8.476    	3.658    	0.015    
8.724    	3.657    	0.018    
8.980    	3.657    	0.029    
9.243    	3.657    	0.029    
9.514    	3.656    	0.040    
9.792    	3.656    	0.050    
10.079    	3.656    	0.062    
10.375    	3.655    	0.070    
10.679    	3.655    	0.073    
10.992    	3.655    	0.076    
11.314    	3.655    	0.084    
11.645    	3.655    	0.097    
11.986    	3.656    	0.107    
12.338    	3.656    	0.111    
12.699    	3.656    	0.114    
13.071    	3.656    	0.119    
13.454    	3.656    	0.128    
13.849    	3.655    	0.142    
14.254    	3.655    	0.156    
14.672    	3.656    	0.166    
15.102    	3.655    	0.161    
15.545    	3.655    	0.153    
16.000    	3.656    	0.143    
16.469    	3.656    	0.140    
16.951    	3.656    	0.142    
17.448    	3.656    	0.139    
17.959    	3.656    	0.143    
18.486    	3.655    	0.155    
19.027    	3.656    	0.164    
19.585    	3.656    	0.179    
20.159    	3.656    	0.184    
20.749    	3.656    	0.187    
21.357    	3.657    	0.181    
21.983    	3.657    	0.174    
22.627    	3.657    	0.163    
23.290    	3.658    	0.155    
23.973    	3.658    	0.157    
24.675    	3.659    	0.170    
25.398    	3.658    	0.189    
26.143    	3.658    	0.208    
26.909    	3.658    	0.223    
27.697    	3.658    	0.231    
28.509    	3.658    	0.238    
29.344    	3.657    	0.243    
30.204    	3.657    	0.242    
31.089    	3.656    	0.241    
32.000    	3.656    	0.243    
32.938    	3.656    	0.254    
33.903    	3.656    	0.255    
34.896    	3.656    	0.247    
35.919    	3.656    	0.256    
36.971    	3.656    	0.273    
38.055    	3.656    	0.285    
39.170    	3.657    	0.298    
40.317    	3.657    	0.317    
41.499    	3.658    	0.334    
42.715    	3.659    	0.361    
43.967    	3.657    	0.372    
45.255    	3.656    	0.360    
46.581    	3.658    	0.386    
47.946    	3.658    	0.377    
49.351    	3.654    	0.185    
50.797    	3.653    	0.268    
52.285    	3.659    	0.454    
53.817    	3.660    	0.465    
55.394    	3.658    	0.450    
57.018    	3.659    	0.459    
58.688    	3.658    	0.490    
60.408    	3.657    	0.516    
62.178    	3.658    	0.551    
64.000    	3.659    	0.532    
65.875    	3.660    	0.528    
67.806    	3.660    	0.551    
69.792    	3.659    	0.583    
71.838    	3.658    	0.606    
73.943    	3.657    	0.626    
76.109    	3.658    	0.604    
78.339    	3.659    	0.641    
80.635    	3.661    	0.661    
82.998    	3.658    	0.709    
85.430    	3.658    	0.721    
87.933    	3.659    	0.750    
90.510    	3.659    	0.745    
93.162    	3.659    	0.746    
95.892    	3.660    	0.762    
98.701    	3.658    	0.828    
101.594    	3.657    	0.858    
104.571    	3.660    	0.842    
107.635    	3.662    	0.845    
110.789    	3.660    	0.902    
114.035    	3.659    	0.954    
117.377    	3.659    	0.956    
120.816    	3.658    	0.998    
124.356    	3.659    	1.020    
128.000    	3.660    	1.025    
131.751    	3.659    	1.034    
135.611    	3.661    	1.080    
139.585    	3.662    	1.145    
143.675    	3.660    	1.179    
147.885    	3.664    	1.196    
152.219    	3.663    	1.237    
156.679    	3.661    	1.269    
161.270    	3.661    	1.300    
165.995    	3.663    	1.367    
170.860    	3.665    	1.403    
175.866    	3.664    	1.427    
181.019    	3.664    	1.486    
186.324    	3.662    	1.481    
191.783    	3.665    	1.537    
197.403    	3.669    	1.619    
203.187    	3.667    	1.630    
209.141    	3.666    	1.663    
215.269    	3.667    	1.723    
221.577    	3.668    	1.797    
228.070    	3.667    	1.819    
234.753    	3.668    	1.914    
241.632    	3.669    	1.955    
248.712    	3.670    	1.968    
256.000    	3.670    	2.009    
263.501    	3.670    	2.086    
271.223    	3.671    	2.154    
279.170    	3.672    	2.218    
287.350    	3.672    	2.271    
295.770    	3.673    	2.378    
304.437    	3.674    	2.452    
313.358    	3.674    	2.497    
322.540    	3.678    	2.582    
331.991    	3.678    	2.659    
341.719    	3.679    	2.746    
351.732    	3.677    	2.833    
362.039    	3.681    	2.898    
372.647    	3.683    	2.967    
383.567    	3.684    	3.107    
394.806    	3.684    	3.199    
406.375    	3.685    	3.277    
418.282    	3.688    	3.395    
430.539    	3.689    	3.469    
443.155    	3.692    	3.522    
456.140    	3.692    	3.664    
469.506    	3.693    	3.810    
483.264    	3.697    	3.962    
497.424    	3.699    	4.067    
512.000    	3.703    	4.162    
527.003    	3.702    	4.314    
542.445    	3.705    	4.471    
558.340    	3.710    	4.619    
574.701    	3.713    	4.756    
591.541    	3.715    	4.888    
608.874    	3.718    	5.073    
626.715    	3.721    	5.249    
645.080    	3.724    	5.405    
663.982    	3.730    	5.599    
683.438    	3.738    	5.755    
703.464    	3.740    	5.973    
724.077    	3.747    	6.238    
745.294    	3.752    	6.431    
767.133    	3.759    	6.673    
789.612    	3.768    	6.941    
812.749    	3.779    	7.179    
836.565    	3.788    	7.458    
861.078    	3.797    	7.764    
886.309    	3.807    	8.061    
912.280    	3.818    	8.389    
939.012    	3.834    	8.780    
966.527    	3.849    	9.167    
994.849    	3.869    	9.575    
1024.000    	3.892    	10.016    
1054.005    	3.917    	10.486    
1084.890    	3.944    	10.972    
1116.680    	3.979    	11.524    
1149.401    	4.020    	12.127    
1183.081    	4.072    	12.734    
1217.748    	4.131    	13.365    
1253.431    	4.204    	14.088    
1290.159    	4.295    	14.828    
1327.964    	4.411    	15.557    
1366.876    	4.558    	16.216    
1406.929    	4.752    	16.700    
1448.155    	4.998    	16.825    
1490.589    	5.310    	16.331    
1534.266    	5.696    	14.738    
1579.224    	6.091    	11.539    
1625.499    	6.403    	6.659    
1673.129    	6.489    	0.447    
1722.156    	6.268    	-5.519    
1772.619    	5.857    	-9.668    
1824.561    	5.421    	-11.847    
1878.024    	5.048    	-12.448    
1933.055    	4.771    	-12.149    
1989.697    	4.561    	-11.354    
2048.000    	4.409    	-10.449    
2108.011    	4.300    	-9.523    
2169.780    	4.226    	-8.625    
2233.360    	4.172    	-7.915    
2298.802    	4.116    	-7.372    
2366.162    	4.068    	-6.726    
2435.496    	4.035    	-6.119    
2506.862    	4.009    	-5.671    
2580.318    	3.981    	-5.348    
2655.927    	3.946    	-5.007    
2733.752    	3.912    	-4.592    
2813.857    	3.882    	-4.148    
2896.309    	3.855    	-3.600    
2981.178    	3.834    	-3.109    
3068.533    	3.819    	-2.600    
3158.448    	3.805    	-2.079    
3250.997    	3.796    	-1.600    
3346.259    	3.787    	-1.179    
3444.312    	3.780    	-0.735    
3545.238    	3.778    	-0.299    
3649.121    	3.774    	0.100    
3756.049    	3.768    	0.492    
3866.109    	3.767    	0.886    
3979.395    	3.767    	1.253    
4096.000    	3.768    	1.588    
4216.022    	3.767    	1.931    
4339.561    	3.769    	2.314    
4466.720    	3.773    	2.640    
4597.605    	3.776    	2.960    
4732.325    	3.779    	3.277    
4870.992    	3.782    	3.608    
5013.723    	3.784    	3.930    
5160.637    	3.788    	4.241    
5311.855    	3.794    	4.517    
5467.504    	3.799    	4.806    
5627.714    	3.802    	5.092    
5792.619    	3.805    	5.413    
5962.355    	3.811    	5.729    
6137.066    	3.816    	6.006    
6316.896    	3.822    	6.305    
6501.995    	3.826    	6.622    
6692.518    	3.830    	6.931    
6888.623    	3.839    	7.275    
7090.476    	3.845    	7.579    
7298.242    	3.853    	7.892    
7512.097    	3.860    	8.205    
7732.218    	3.868    	8.513    
7958.790    	3.877    	8.812    
8192.000    	3.885    	9.152    
8432.044    	3.892    	9.466    
8679.122    	3.904    	9.760    
8933.439    	3.912    	10.088    
9195.209    	3.921    	10.431    
9464.649    	3.932    	10.771    
9741.985    	3.943    	11.110    
10027.447    	3.955    	11.453    
10321.273    	3.965    	11.780    
10623.710    	3.977    	12.162    
10935.008    	3.987    	12.510    
11255.428    	4.002    	12.853    
11585.238    	4.017    	13.206    
11924.711    	4.031    	13.556    
12274.132    	4.046    	13.921    
12633.791    	4.063    	14.288    
13003.989    	4.078    	14.642    
13385.035    	4.091    	15.051    
13777.247    	4.109    	15.444    
14180.951    	4.127    	15.814    
14596.485    	4.143    	16.192    
15024.194    	4.161    	16.615    
15464.437    	4.181    	17.029    
15917.579    	4.202    	17.479    
16384.000    	4.224    	17.858    
16864.088    	4.247    	18.263    
17358.243    	4.271    	18.691    
17866.879    	4.291    	19.079    
18390.418    	4.315    	19.462    
18929.299    	4.344    	19.899    
19483.969    	4.372    	20.361    
20054.893    	4.402    	20.840    
20642.546    	4.439    	21.205    
