Freq[Hz]     dBSPL  Phase[Deg]
5.00000     64.191   126.209
5.07273     64.282   126.110
5.14651     64.401   125.982
5.22137     64.559   125.813
5.29732     64.734   125.635
5.37437     64.927   125.438
5.45254     65.120   125.243
5.53185     65.313   125.045
5.61231     65.506   124.844
5.69394     65.698   124.641
5.77676     65.891   124.435
5.86079     66.084   124.226
5.94604     66.277   124.015
6.03252     66.470   123.800
6.12027     66.663   123.582
6.20929     66.856   123.361
6.29961     67.049   123.136
6.39124     67.241   122.908
6.48420     67.434   122.677
6.57851     67.627   122.442
6.67420     67.820   122.204
6.77128     68.013   121.963
6.86977     68.206   121.717
6.96969     68.399   121.468
7.07107     68.592   121.215
7.17392     68.784   120.959
7.27827     68.977   120.698
7.38413     69.170   120.433
7.49154     69.363   120.164
7.60050     69.556   119.891
7.71105     69.749   119.614
7.82321     69.942   119.332
7.93701     70.135   119.046
8.05245     70.327   118.755
8.16958     70.520   118.459
8.28841     70.713   118.158
8.40896     70.906   117.853
8.53128     71.099   117.543
8.65537     71.292   117.227
8.78126     71.485   116.906
8.90899     71.678   116.580
9.03857     71.871   116.248
9.17004     72.063   115.909
9.30342     72.256   115.565
9.43874     72.449   115.215
9.57603     72.642   114.857
9.71532     72.835   114.493
9.85663     73.028   114.120
10.0000     73.221   113.739
10.1455     73.414   113.349
10.2930     73.606   112.947
10.4427     73.799   112.531
10.5946     73.991   112.096
10.7487     74.182   111.640
10.9051     74.368   111.165
11.0637     74.548   110.680
11.2246     74.723   110.200
11.3879     74.891   109.735
11.5535     75.052   109.303
11.7216     75.212   108.912
11.8921     75.363   108.590
12.0650     75.521   108.355
12.2405     75.685   108.196
12.4186     75.865   108.114
12.5992     76.072   108.043
12.7825     76.298   107.913
12.9684     76.537   107.692
13.1570     76.777   107.370
13.3484     77.015   106.965
13.5426     77.247   106.513
13.7395     77.473   106.063
13.9394     77.714   105.590
14.1421     77.951   105.064
14.3478     78.189   104.515
14.5565     78.439   103.891
14.7683     78.674   103.203
14.9831     78.907   102.506
15.2010     79.144   101.778
15.4221     79.374   101.031
15.6464     79.611   100.272
15.8740     79.853    99.461
16.1049     80.093    98.601
16.3392     80.338    97.682
16.5768     80.578    96.689
16.8179     80.811    95.653
17.0626     81.042    94.594
17.3107     81.276    93.498
17.5625     81.512    92.345
17.8180     81.747    91.133
18.0771     81.985    89.839
18.3401     82.218    88.445
18.6068     82.443    86.966
18.8775     82.664    85.400
19.1521     82.873    83.744
19.4306     83.073    82.004
19.7133     83.258    80.174
20.0000     83.422    78.288
20.2909     83.572    76.371
20.5860     83.706    74.424
20.8855     83.828    72.458
21.1893     83.939    70.468
21.4975     84.042    68.427
21.8102     84.128    66.322
22.1274     84.194    64.171
22.4492     84.239    61.990
22.7758     84.264    59.785
23.1071     84.266    57.568
23.4432     84.246    55.343
23.7841     84.203    53.108
24.1301     84.130    50.870
24.4811     84.019    48.672
24.8372     83.870    46.584
25.1984     83.693    44.641
25.5649     83.488    42.859
25.9368     83.263    41.249
26.3141     83.021    39.796
26.6968     82.756    38.509
27.0851     82.462    37.445
27.4791     82.151    36.641
27.8788     81.818    36.140
28.2843     81.481    35.984
28.6957     81.152    36.147
29.1131     80.829    36.619
29.5365     80.517    37.436
29.9661     80.234    38.607
30.4020     79.992    40.088
30.8442     79.810    41.798
31.2929     79.688    43.633
31.7480     79.630    45.490
32.2098     79.619    47.304
32.6783     79.648    49.065
33.1536     79.717    50.764
33.6359     79.835    52.342
34.1251     79.987    53.729
34.6215     80.168    54.876
35.1250     80.360    55.740
35.6359     80.537    56.358
36.1543     80.690    56.837
36.6802     80.821    57.281
37.2137     80.935    57.786
37.7550     81.059    58.363
38.3041     81.189    58.993
38.8613     81.339    59.668
39.4265     81.518    60.311
40.0000     81.715    60.861
40.5818     81.926    61.310
41.1721     82.157    61.597
41.7710     82.378    61.680
42.3785     82.563    61.697
42.9949     82.731    61.831
43.6203     82.933    62.063
44.2548     83.164    62.289
44.8985     83.435    62.428
45.5515     83.753    62.269
46.2141     84.060    61.692
46.8863     84.324    60.833
47.5683     84.558    59.833
48.2602     84.762    58.764
48.9621     84.950    57.653
49.6743     85.122    56.479
50.3968     85.273    55.243
51.1299     85.400    53.965
51.8736     85.501    52.680
52.6281     85.579    51.431
53.3936     85.643    50.219
54.1702     85.692    49.030
54.9581     85.724    47.866
55.7575     85.737    46.727
56.5685     85.721    45.653
57.3914     85.683    44.701
58.2261     85.625    43.913
59.0730     85.557    43.315
59.9323     85.486    42.913
60.8040     85.418    42.708
61.6884     85.365    42.672
62.5857     85.324    42.778
63.4960     85.301    43.014
64.4196     85.300    43.354
65.3566     85.321    43.774
66.3073     85.366    44.259
67.2717     85.438    44.793
68.2502     85.546    45.329
69.2429     85.685    45.812
70.2501     85.852    46.213
71.2719     86.048    46.491
72.3086     86.266    46.609
73.3603     86.501    46.553
74.4274     86.750    46.307
75.5099     87.015    45.816
76.6083     87.270    45.076
77.7226     87.521    44.119
78.8531     87.764    42.917
80.0000     87.981    41.489
81.1636     88.177    39.868
82.3442     88.344    38.046
83.5419     88.467    36.073
84.7570     88.551    34.001
85.9899     88.591    31.862
87.2406     88.586    29.697
88.5096     88.532    27.541
89.7970     88.422    25.456
91.1031     88.250    23.546
92.4282     88.023    21.929
93.7726     87.751    20.696
95.1366     87.449    19.929
96.5204     87.147    19.654
97.9243     86.858    19.843
99.3486     86.599    20.478
100.794     86.399    21.481
102.260     86.266    22.736
103.747     86.209    24.138
105.256     86.244    25.530
106.787     86.363    26.714
108.340     86.537    27.557
109.916     86.744    27.987
111.515     86.961    27.954
113.137     87.149    27.509
114.783     87.300    26.771
116.452     87.407    25.831
118.146     87.459    24.801
119.865     87.467    23.779
121.608     87.427    22.845
123.377     87.343    22.109
125.171     87.235    21.645
126.992     87.111    21.497
128.839     86.995    21.693
130.713     86.910    22.193
132.615     86.868    22.937
134.543     86.897    23.812
136.500     87.004    24.617
138.486     87.173    25.169
140.500     87.381    25.342
142.544     87.598    25.071
144.617     87.791    24.386
146.721     87.946    23.365
148.855     88.043    22.126
151.020     88.081    20.812
153.217     88.069    19.514
155.445     87.998    18.338
157.706     87.888    17.389
160.000     87.759    16.673
162.327     87.612    16.188
164.688     87.459    15.929
167.084     87.299    15.882
169.514     87.129    16.080
171.980     86.957    16.567
174.481     86.790    17.377
177.019     86.634    18.567
179.594     86.516    20.174
182.206     86.462    22.185
184.856     86.514    24.507
187.545     86.713    26.873
190.273     87.053    28.956
193.041     87.513    30.433
195.849     88.032    31.044
198.697     88.539    30.741
201.587     88.990    29.648
204.520     89.353    27.967
207.494     89.617    25.965
210.512     89.791    23.882
213.574     89.893    21.887
216.681     89.945    20.074
219.833     89.971    18.465
223.030     89.994    17.002
226.274     90.023    15.558
229.565     90.041    14.035
232.905     90.033    12.393
236.292     89.959    10.722
239.729     89.807     9.274
243.216     89.605     8.259
246.754     89.383     7.781
250.343     89.191     7.824
253.984     89.075     8.196
257.678     89.039     8.640
261.426     89.070     8.930
265.229     89.123     8.970
269.087     89.173     8.801
273.001     89.202     8.518
276.972     89.206     8.262
281.000     89.199     8.158
285.088     89.213     8.238
289.234     89.273     8.427
293.441     89.399     8.552
297.709     89.580     8.415
302.040     89.797     7.864
306.433     90.015     6.799
310.890     90.192     5.251
315.412     90.309     3.330
320.000     90.340     1.208
324.655     90.289    -0.915
329.377     90.162    -2.872
334.168     89.975    -4.528
339.028     89.760    -5.843
343.959     89.524    -6.821
348.962     89.286    -7.474
354.038     89.059    -7.860
359.188     88.831    -7.969
364.412     88.633    -7.818
369.713     88.458    -7.461
375.090     88.324    -6.927
380.546     88.248    -6.338
386.081     88.218    -5.824
391.697     88.224    -5.457
397.394     88.255    -5.286
403.175     88.301    -5.349
409.039     88.348    -5.677
414.989     88.379    -6.269
421.025     88.383    -7.115
427.149     88.329    -8.160
433.362     88.191    -9.202
439.665     87.972    -9.975
446.060     87.691   -10.246
452.548     87.394    -9.891
459.131     87.137    -8.970
465.809     86.952    -7.660
472.584     86.851    -6.167
479.458     86.828    -4.658
486.432     86.867    -3.217
493.507     86.976    -1.929
500.686     87.143    -0.914
507.968     87.359    -0.291
515.357     87.600    -0.190
522.853     87.817    -0.634
530.458     87.979    -1.510
538.174     88.063    -2.629
546.002     88.062    -3.732
553.943     88.000    -4.598
562.001     87.910    -5.112
570.175     87.837    -5.294
578.469     87.815    -5.322
586.883     87.839    -5.410
595.419     87.897    -5.736
604.080     87.948    -6.389
612.866     87.952    -7.283
621.780     87.896    -8.224
630.824     87.789    -9.045
640.000     87.647    -9.643
649.309     87.494    -9.987
658.753     87.348   -10.131
668.335     87.209   -10.127
678.056     87.076   -10.001
687.919     86.949    -9.761
697.925     86.824    -9.386
708.077     86.714    -8.872
718.376     86.621    -8.237
728.825     86.553    -7.512
739.426     86.508    -6.722
750.181     86.490    -5.888
761.093     86.506    -5.052
772.163     86.555    -4.268
783.394     86.634    -3.582
794.789     86.743    -3.041
806.349     86.884    -2.735
818.078     87.028    -2.719
829.977     87.166    -2.984
842.050     87.284    -3.525
854.298     87.356    -4.263
866.724     87.381    -5.064
879.330     87.360    -5.807
892.120     87.307    -6.388
905.097     87.247    -6.782
918.262     87.188    -7.019
931.618     87.149    -7.158
945.169     87.131    -7.298
958.917     87.125    -7.506
972.864     87.124    -7.825
987.015     87.116    -8.279
1001.37     87.092    -8.884
1015.94     87.027    -9.597
1030.71     86.908   -10.288
1045.71     86.730   -10.805
1060.92     86.495   -10.950
1076.35     86.234   -10.555
1092.00     85.991    -9.570
1107.89     85.816    -8.087
1124.00     85.746    -6.328
1140.35     85.797    -4.599
1156.94     85.941    -3.190
1173.77     86.134    -2.250
1190.84     86.340    -1.812
1208.16     86.518    -1.793
1225.73     86.661    -2.036
1243.56     86.774    -2.446
1261.65     86.850    -2.942
1280.00     86.906    -3.477
1298.62     86.935    -4.036
1317.51     86.943    -4.585
1336.67     86.929    -5.107
1356.11     86.896    -5.579
1375.84     86.841    -5.974
1395.85     86.768    -6.255
1416.15     86.677    -6.376
1436.75     86.575    -6.281
1457.65     86.479    -5.942
1478.85     86.402    -5.377
1500.36     86.354    -4.607
1522.19     86.358    -3.691
1544.33     86.430    -2.776
1566.79     86.559    -2.019
1589.58     86.739    -1.550
1612.70     86.937    -1.464
1636.16     87.127    -1.750
1659.95     87.296    -2.349
1684.10     87.437    -3.200
1708.60     87.544    -4.247
1733.45     87.619    -5.479
1758.66     87.636    -6.840
1784.24     87.596    -8.218
1810.19     87.486    -9.483
1836.52     87.310   -10.433
1863.24     87.109   -10.954
1890.34     86.907   -11.055
1917.83     86.725   -10.769
1945.73     86.599   -10.222
1974.03     86.521    -9.563
2002.74     86.494    -8.886
2031.87     86.514    -8.306
2061.43     86.566    -7.913
2091.41     86.630    -7.736
2121.83     86.693    -7.767
2152.69     86.745    -7.985
2184.01     86.770    -8.330
2215.77     86.769    -8.720
2248.00     86.740    -9.091
2280.70     86.685    -9.362
2313.87     86.621    -9.487
2347.53     86.557    -9.468
2381.68     86.503    -9.318
2416.32     86.472    -9.093
2451.46     86.459    -8.865
2487.12     86.460    -8.664
2523.30     86.470    -8.499
2560.00     86.493    -8.397
2597.24     86.523    -8.399
2635.01     86.548    -8.514
2673.34     86.559    -8.725
2712.23     86.544    -8.979
2751.68     86.497    -9.171
2791.70     86.430    -9.205
2832.31     86.354    -9.025
2873.50     86.292    -8.606
2915.30     86.267    -8.020
2957.70     86.289    -7.388
3000.72     86.356    -6.838
3044.37     86.460    -6.497
3088.65     86.568    -6.419
3133.58     86.662    -6.563
3179.16     86.729    -6.839
3225.40     86.766    -7.145
3272.31     86.783    -7.404
3319.91     86.788    -7.572
3368.20     86.792    -7.639
3417.19     86.801    -7.607
3466.89     86.828    -7.501
3517.32     86.879    -7.385
3568.48     86.953    -7.328
3620.39     87.045    -7.397
3673.05     87.141    -7.625
3726.47     87.230    -7.997
3780.67     87.307    -8.486
3835.67     87.364    -9.048
3891.46     87.405    -9.633
3948.06     87.434   -10.223
4005.49     87.450   -10.801
4063.75     87.456   -11.345
4122.86     87.458   -11.855
4182.82     87.458   -12.340
4243.66     87.458   -12.819
4305.39     87.454   -13.305
4368.01     87.445   -13.803
4431.55     87.423   -14.290
4496.01     87.389   -14.726
4561.40     87.351   -15.100
4627.75     87.305   -15.394
4695.06     87.257   -15.577
4763.35     87.221   -15.665
4832.64     87.195   -15.690
4902.93     87.184   -15.670
4974.24     87.189   -15.639
5046.60     87.208   -15.632
5120.00     87.235   -15.657
5194.47     87.267   -15.698
5270.03     87.309   -15.743
5346.68     87.371   -15.827
5424.45     87.447   -16.003
5503.35     87.536   -16.312
5583.40     87.626   -16.794
5664.61     87.697   -17.426
5747.01     87.748   -18.135
5830.60     87.778   -18.867
5915.41     87.788   -19.566
6001.45     87.793   -20.208
6088.74     87.793   -20.803
6177.30     87.793   -21.359
6267.15     87.793   -21.883
6358.31     87.795   -22.374
6450.80     87.801   -22.837
6544.62     87.817   -23.289
6639.82     87.844   -23.767
6736.40     87.876   -24.294
6834.38     87.912   -24.874
6933.79     87.949   -25.508
7034.64     87.988   -26.200
7136.96     88.026   -26.960
7240.77     88.060   -27.786
7346.09     88.092   -28.679
7452.94     88.114   -29.640
7561.35     88.123   -30.625
7671.33     88.131   -31.618
7782.91     88.141   -32.638
7896.12     88.164   -33.747
8010.97     88.192   -35.044
8127.49     88.208   -36.582
8245.71     88.194   -38.378
8365.65     88.122   -40.377
8487.33     87.976   -42.439
8610.78     87.752   -44.416
8736.03     87.445   -46.139
8863.09     87.067   -47.439
8992.01     86.626   -48.143
9122.80     86.150   -48.075
9255.50     85.686   -47.167
9390.12     85.288   -45.480
9526.70     85.014   -43.220
9665.27     84.900   -40.728
9805.86     84.940   -38.359
9948.49     85.103   -36.412
10093.2     85.333   -35.048
10240.0     85.586   -34.283
10388.9     85.827   -34.043
10540.1     86.035   -34.190
10693.4     86.206   -34.578
10848.9     86.342   -35.092
11006.7     86.451   -35.649
11166.8     86.534   -36.171
11329.2     86.605   -36.588
11494.0     86.686   -36.881
11661.2     86.797   -37.094
11830.8     86.956   -37.350
12002.9     87.163   -37.822
12177.5     87.389   -38.627
12354.6     87.621   -39.820
12534.3     87.830   -41.404
12716.6     87.995   -43.293
12901.6     88.118   -45.406
13089.2     88.190   -47.686
13279.6     88.203   -50.053
13472.8     88.153   -52.389
13668.8     88.048   -54.594
13867.6     87.897   -56.597
14069.3     87.704   -58.322
14273.9     87.493   -59.731
14481.5     87.272   -60.824
14692.2     87.053   -61.603
14905.9     86.852   -62.104
15122.7     86.669   -62.351
15342.7     86.527   -62.400
15565.8     86.421   -62.335
15792.2     86.350   -62.208
16021.9     86.310   -62.053
16255.0     86.294   -61.877
16491.4     86.295   -61.640
16731.3     86.321   -61.269
16974.7     86.400   -60.737
17221.6     86.562   -60.125
17472.1     86.831   -59.611
17726.2     87.214   -59.448
17984.0     87.693   -59.921
18245.6     88.219   -61.229
18511.0     88.748   -63.461
18780.2     89.237   -66.623
19053.4     89.640   -70.601
19330.5     89.935   -75.179
19611.7     90.120   -80.167
19897.0     90.188   -85.389
20186.4     90.145   -90.669
20480.0     90.006   -95.893
20777.9     89.777  -101.005
21080.1     89.463  -105.957
21386.7     89.058  -110.653
21697.8     88.575  -114.992
22013.4     88.022  -118.912
22333.6     87.401  -122.327
22658.4     86.741  -125.188
22988.0     86.055  -127.513
23322.4     85.346  -129.277
23661.6     84.632  -130.453
24005.8     83.914  -130.993
24355.0     83.217  -130.839
24709.2     82.582  -130.037
25068.6     82.041  -128.728
25433.2     81.631  -127.149
25803.2     81.358  -125.603
26178.5     81.194  -124.330
26559.3     81.101  -123.456
26945.6     81.042  -122.997
27337.5     80.993  -122.897
27735.2     80.938  -123.057
28138.6     80.882  -123.385
28547.9     80.839  -123.884
28963.1     80.803  -124.587
29384.4     80.777  -125.528
29811.8     80.755  -126.778
30245.4     80.710  -128.356
30685.3     80.627  -130.207
31131.7     80.490  -132.238
31584.5     80.294  -134.332
32043.9     80.041  -136.369
32510.0     79.738  -138.259
32982.8     79.394  -139.926
33462.6     79.026  -141.326
33949.3     78.640  -142.438
34443.1     78.250  -143.233
34944.1     77.881  -143.753
35452.4     77.540  -144.087
35968.0     77.219  -144.258
36491.2     76.938  -144.286
37022.0     76.701  -144.251
37560.5     76.516  -144.253
38106.8     76.399  -144.326
38661.1     76.338  -144.607
39223.4     76.314  -144.922
39793.9     76.317  -145.278
