Freq[Hz]     dBSPL  Phase[Deg]
5.00000     69.317    76.541
5.07273     69.369    76.529
5.14651     69.446    76.514
5.22137     69.547    76.497
5.29732     69.653    76.485
5.37437     69.761    76.472
5.45254     69.869    76.462
5.53185     69.976    76.452
5.61231     70.084    76.442
5.69394     70.191    76.432
5.77676     70.299    76.423
5.86079     70.407    76.413
5.94604     70.514    76.404
6.03252     70.622    76.395
6.12027     70.729    76.387
6.20929     70.837    76.378
6.29961     70.945    76.370
6.39124     71.052    76.361
6.48420     71.160    76.353
6.57851     71.267    76.345
6.67420     71.375    76.338
6.77128     71.483    76.331
6.86977     71.590    76.324
6.96969     71.698    76.317
7.07107     71.805    76.310
7.17392     71.913    76.304
7.27827     72.021    76.298
7.38413     72.128    76.293
7.49154     72.236    76.288
7.60050     72.343    76.283
7.71105     72.451    76.279
7.82321     72.559    76.276
7.93701     72.666    76.272
8.05245     72.774    76.270
8.16958     72.881    76.268
8.28841     72.989    76.267
8.40896     73.097    76.266
8.53128     73.204    76.266
8.65537     73.312    76.267
8.78126     73.419    76.269
8.90899     73.527    76.272
9.03857     73.635    76.275
9.17004     73.742    76.280
9.30342     73.850    76.285
9.43874     73.957    76.292
9.57603     74.065    76.299
9.71532     74.173    76.307
9.85663     74.280    76.315
10.0000     74.388    76.322
10.1455     74.495    76.328
10.2930     74.602    76.332
10.4427     74.708    76.333
10.5946     74.814    76.327
10.7487     74.917    76.319
10.9051     75.015    76.318
11.0637     75.101    76.354
11.2246     75.177    76.457
11.3879     75.256    76.631
11.5535     75.340    76.877
11.7216     75.446    77.173
11.8921     75.565    77.477
12.0650     75.692    77.775
12.2405     75.824    78.065
12.4186     75.957    78.354
12.5992     76.096    78.645
12.7825     76.250    78.921
12.9684     76.421    79.156
13.1570     76.601    79.336
13.3484     76.778    79.465
13.5426     76.952    79.553
13.7395     77.128    79.605
13.9394     77.313    79.620
14.1421     77.512    79.579
14.3478     77.719    79.451
14.5565     77.926    79.213
14.7683     78.132    78.857
14.9831     78.333    78.380
15.2010     78.517    77.805
15.4221     78.676    77.169
15.6464     78.810    76.505
15.8740     78.924    75.846
16.1049     79.026    75.217
16.3392     79.116    74.631
16.5768     79.190    74.103
16.8179     79.251    73.645
17.0626     79.303    73.264
17.3107     79.352    72.970
17.5625     79.402    72.758
17.8180     79.449    72.628
18.0771     79.491    72.598
18.3401     79.528    72.693
18.6068     79.563    72.941
18.8775     79.615    73.343
19.1521     79.705    73.842
19.4306     79.839    74.361
19.7133     80.015    74.818
20.0000     80.215    75.146
20.2909     80.421    75.323
20.5860     80.629    75.357
20.8855     80.836    75.264
21.1893     81.043    75.048
21.4975     81.249    74.707
21.8102     81.447    74.249
22.1274     81.624    73.706
22.4492     81.768    73.138
22.7758     81.883    72.610
23.1071     81.979    72.169
23.4432     82.073    71.839
23.7841     82.181    71.609
24.1301     82.313    71.420
24.4811     82.457    71.232
24.8372     82.608    71.036
25.1984     82.771    70.804
25.5649     82.935    70.513
25.9368     83.127    70.123
26.3141     83.352    69.540
26.6968     83.575    68.728
27.0851     83.764    67.730
27.4791     83.903    66.605
27.8788     83.979    65.453
28.2843     84.016    64.386
28.6957     84.036    63.460
29.1131     84.045    62.683
29.5365     84.048    62.049
29.9661     84.048    61.547
30.4020     84.048    61.171
30.8442     84.048    60.922
31.2929     84.050    60.803
31.7480     84.060    60.810
32.2098     84.091    60.913
32.6783     84.147    61.076
33.1536     84.226    61.263
33.6359     84.319    61.447
34.1251     84.422    61.611
34.6215     84.544    61.731
35.1250     84.677    61.802
35.6359     84.823    61.824
36.1543     84.973    61.783
36.6802     85.123    61.682
37.2137     85.289    61.501
37.7550     85.470    61.205
38.3041     85.664    60.757
38.8613     85.852    60.136
39.4265     86.014    59.365
40.0000     86.146    58.495
40.5818     86.235    57.598
41.1721     86.289    56.757
41.7710     86.317    56.032
42.3785     86.327    55.462
42.9949     86.334    55.062
43.6203     86.355    54.806
44.2548     86.395    54.648
44.8985     86.451    54.543
45.5515     86.527    54.443
46.2141     86.605    54.325
46.8863     86.678    54.219
47.5683     86.741    54.161
48.2602     86.791    54.200
48.9621     86.849    54.371
49.6743     86.935    54.654
50.3968     87.054    55.007
51.1299     87.218    55.357
51.8736     87.421    55.613
52.6281     87.646    55.736
53.3936     87.893    55.697
54.1702     88.155    55.463
54.9581     88.425    55.023
55.7575     88.709    54.359
56.5685     88.992    53.452
57.3914     89.262    52.309
58.2261     89.511    50.940
59.0730     89.738    49.348
59.9323     89.938    47.552
60.8040     90.102    45.583
61.6884     90.211    43.499
62.5857     90.244    41.398
63.4960     90.196    39.407
64.4196     90.075    37.660
65.3566     89.904    36.276
66.3073     89.710    35.338
67.2717     89.520    34.872
68.2502     89.364    34.842
69.2429     89.265    35.163
70.2501     89.234    35.727
71.2719     89.279    36.390
72.3086     89.412    36.967
73.3603     89.636    37.255
74.4274     89.922    37.106
75.5099     90.232    36.446
76.6083     90.517    35.283
77.7226     90.725    33.728
78.8531     90.866    31.934
80.0000     90.940    30.024
81.1636     90.937    28.162
82.3442     90.856    26.522
83.5419     90.722    25.202
84.7570     90.565    24.256
85.9899     90.438    23.688
87.2406     90.376    23.403
88.5096     90.378    23.226
89.7970     90.448    22.948
91.1031     90.584    22.383
92.4282     90.760    21.403
93.7726     90.919    19.978
95.1366     91.013    18.162
96.5204     91.015    16.096
97.9243     90.878    14.067
99.3486     90.606    12.414
100.794     90.225    11.405
102.260     89.797    11.236
103.747     89.455    11.913
105.256     89.301    13.108
106.787     89.370    14.255
108.340     89.580    14.849
109.916     89.819    14.721
111.515     90.001    13.956
113.137     90.057    12.813
114.783     89.987    11.636
116.452     89.804    10.774
118.146     89.574    10.442
119.865     89.404    10.574
121.608     89.363    10.900
123.377     89.466    11.070
125.171     89.620    10.806
126.992     89.741    10.031
128.839     89.763     8.879
130.713     89.663     7.681
132.615     89.434     6.821
134.543     89.094     6.613
136.500     88.735     7.246
138.486     88.485     8.666
140.500     88.450    10.506
142.544     88.652    12.136
144.617     88.992    13.032
146.721     89.369    13.026
148.855     89.698    12.201
151.020     89.915    10.776
153.217     90.014     8.998
155.445     89.997     7.111
157.706     89.892     5.322
160.000     89.716     3.762
162.327     89.450     2.595
164.688     89.128     1.977
167.084     88.775     2.001
169.514     88.433     2.736
171.980     88.213     4.022
174.481     88.140     5.513
177.019     88.217     6.854
179.594     88.366     7.783
182.206     88.519     8.236
184.856     88.642     8.273
187.545     88.723     8.020
190.273     88.769     7.627
193.041     88.757     7.225
195.849     88.701     6.924
198.697     88.581     6.849
201.587     88.476     7.063
204.520     88.393     7.524
207.494     88.352     8.181
210.512     88.367     8.914
213.574     88.416     9.611
216.681     88.496    10.225
219.833     88.602    10.714
223.030     88.725    11.052
226.274     88.857    11.225
229.565     88.992    11.240
232.905     89.130    11.099
236.292     89.259    10.813
239.729     89.381    10.392
243.216     89.499     9.821
246.754     89.612     9.091
250.343     89.709     8.205
253.984     89.767     7.207
257.678     89.776     6.156
261.426     89.741     5.110
265.229     89.654     4.174
269.087     89.546     3.424
273.001     89.390     2.935
276.972     89.206     2.801
281.000     89.044     3.016
285.088     88.907     3.552
289.234     88.845     4.329
293.441     88.864     5.126
297.709     88.946     5.773
302.040     89.084     6.164
306.433     89.218     6.287
310.890     89.308     6.235
315.412     89.385     6.056
320.000     89.462     5.760
324.655     89.560     5.364
329.377     89.668     4.829
334.168     89.748     4.132
339.028     89.767     3.355
343.959     89.742     2.622
348.962     89.700     1.991
354.038     89.646     1.492
359.188     89.591     1.142
364.412     89.572     0.845
369.713     89.569     0.498
375.090     89.589     0.058
380.546     89.591    -0.471
386.081     89.531    -0.979
391.697     89.417    -1.337
397.394     89.278    -1.461
403.175     89.177    -1.338
409.039     89.156    -1.116
414.989     89.197    -0.985
421.025     89.266    -1.073
427.149     89.318    -1.408
433.362     89.334    -1.940
439.665     89.319    -2.610
446.060     89.266    -3.335
452.548     89.164    -3.995
459.131     89.002    -4.470
465.809     88.785    -4.658
472.584     88.551    -4.482
479.458     88.337    -3.911
486.432     88.169    -2.969
493.507     88.029    -1.699
500.686     87.919    -0.113
507.968     87.883     1.705
515.357     87.979     3.530
522.853     88.221     5.042
530.458     88.553     5.991
538.174     88.894     6.295
546.002     89.179     6.041
553.943     89.392     5.409
562.001     89.540     4.591
570.175     89.641     3.728
578.469     89.712     2.886
586.883     89.763     2.080
595.419     89.811     1.296
604.080     89.854     0.513
612.866     89.879    -0.265
621.780     89.883    -1.027
630.824     89.861    -1.748
640.000     89.826    -2.397
649.309     89.789    -2.967
658.753     89.750    -3.457
668.335     89.704    -3.854
678.056     89.642    -4.126
687.919     89.582    -4.262
697.925     89.561    -4.345
708.077     89.589    -4.483
718.376     89.657    -4.762
728.825     89.720    -5.234
739.426     89.734    -5.848
750.181     89.694    -6.483
761.093     89.623    -7.027
772.163     89.543    -7.417
783.394     89.479    -7.666
794.789     89.437    -7.828
806.349     89.417    -7.964
818.078     89.413    -8.138
829.977     89.420    -8.393
842.050     89.437    -8.750
854.298     89.435    -9.166
866.724     89.391    -9.534
879.330     89.333    -9.809
892.120     89.284   -10.007
905.097     89.286   -10.189
918.262     89.358   -10.506
931.618     89.458   -11.121
945.169     89.536   -12.069
958.917     89.564   -13.293
972.864     89.530   -14.692
987.015     89.422   -16.139
1001.37     89.250   -17.503
1015.94     89.018   -18.676
1030.71     88.746   -19.591
1045.71     88.447   -20.202
1060.92     88.128   -20.465
1076.35     87.819   -20.387
1092.00     87.512   -20.000
1107.89     87.232   -19.335
1124.00     86.984   -18.445
1140.35     86.760   -17.362
1156.94     86.553   -16.101
1173.77     86.364   -14.654
1190.84     86.216   -13.035
1208.16     86.108   -11.274
1225.73     86.056    -9.423
1243.56     86.076    -7.614
1261.65     86.148    -5.962
1280.00     86.279    -4.560
1298.62     86.441    -3.491
1317.51     86.595    -2.742
1336.67     86.720    -2.231
1356.11     86.803    -1.833
1375.84     86.850    -1.429
1395.85     86.882    -0.955
1416.15     86.935    -0.415
1436.75     87.018     0.129
1457.65     87.121     0.614
1478.85     87.231     1.000
1500.36     87.330     1.283
1522.19     87.418     1.498
1544.33     87.502     1.670
1566.79     87.584     1.810
1589.58     87.661     1.932
1612.70     87.726     2.067
1636.16     87.777     2.256
1659.95     87.827     2.519
1684.10     87.892     2.842
1708.60     87.997     3.160
1733.45     88.139     3.371
1758.66     88.298     3.416
1784.24     88.458     3.273
1810.19     88.579     2.988
1836.52     88.664     2.666
1863.24     88.746     2.331
1890.34     88.818     2.002
1917.83     88.892     1.709
1945.73     88.985     1.391
1974.03     89.055     1.033
2002.74     89.126     0.672
2031.87     89.190     0.301
2061.43     89.246    -0.062
2091.41     89.313    -0.435
2121.83     89.385    -0.854
2152.69     89.461    -1.328
2184.01     89.547    -1.902
2215.77     89.600    -2.552
2248.00     89.625    -3.196
2280.70     89.617    -3.776
2313.87     89.590    -4.246
2347.53     89.570    -4.589
2381.68     89.578    -4.855
2416.32     89.608    -5.099
2451.46     89.639    -5.352
2487.12     89.659    -5.600
2523.30     89.675    -5.830
2560.00     89.704    -6.046
2597.24     89.746    -6.260
2635.01     89.814    -6.517
2673.34     89.885    -6.870
2712.23     89.959    -7.331
2751.68     90.015    -7.873
2791.70     90.055    -8.445
2832.31     90.067    -8.993
2873.50     90.053    -9.456
2915.30     90.056    -9.832
2957.70     90.090   -10.199
3000.72     90.136   -10.582
3044.37     90.197   -11.022
3088.65     90.238   -11.540
3133.58     90.258   -12.087
3179.16     90.274   -12.624
3225.40     90.290   -13.146
3272.31     90.305   -13.639
3319.91     90.314   -14.095
3368.20     90.310   -14.483
3417.19     90.310   -14.799
3466.89     90.339   -15.096
3517.32     90.393   -15.421
3568.48     90.471   -15.805
3620.39     90.539   -16.274
3673.05     90.594   -16.819
3726.47     90.653   -17.425
3780.67     90.723   -18.092
3835.67     90.784   -18.798
3891.46     90.844   -19.564
3948.06     90.910   -20.442
4005.49     90.962   -21.423
4063.75     91.015   -22.478
4122.86     91.050   -23.637
4182.82     91.033   -24.830
4243.66     90.959   -25.913
4305.39     90.857   -26.801
4368.01     90.733   -27.445
4431.55     90.620   -27.800
4496.01     90.531   -27.856
4561.40     90.498   -27.715
4627.75     90.528   -27.529
4695.06     90.640   -27.446
4763.35     90.821   -27.619
4832.64     91.032   -28.174
4902.93     91.264   -29.203
4974.24     91.464   -30.692
5046.60     91.622   -32.513
5120.00     91.692   -34.547
5194.47     91.634   -36.564
5270.03     91.480   -38.320
5346.68     91.263   -39.633
5424.45     91.018   -40.336
5503.35     90.862   -40.500
5583.40     90.815   -40.394
5664.61     90.918   -40.324
5747.01     91.166   -40.671
5830.60     91.457   -41.674
5915.41     91.726   -43.326
6001.45     91.961   -45.596
6088.74     92.104   -48.357
6177.30     92.145   -51.380
6267.15     92.100   -54.552
6358.31     91.924   -57.721
6450.80     91.656   -60.696
6544.62     91.332   -63.407
6639.82     90.882   -65.629
6736.40     90.370   -67.156
6834.38     89.837   -67.993
6933.79     89.283   -68.037
7034.64     88.871   -67.351
7136.96     88.606   -66.315
7240.77     88.443   -65.170
7346.09     88.357   -64.059
7452.94     88.303   -62.996
7561.35     88.295   -61.978
7671.33     88.340   -61.034
7782.91     88.506   -60.279
7896.12     88.814   -60.015
8010.97     89.203   -60.515
8127.49     89.612   -61.873
8245.71     89.998   -64.091
8365.65     90.299   -67.071
8487.33     90.432   -70.502
8610.78     90.416   -74.116
8736.03     90.242   -77.700
8863.09     89.930   -81.021
8992.01     89.578   -83.929
9122.80     89.208   -86.453
9255.50     88.850   -88.648
9390.12     88.478   -90.567
9526.70     88.072   -92.204
9665.27     87.643   -93.573
9805.86     87.184   -94.655
9948.49     86.725   -95.354
10093.2     86.292   -95.676
10240.0     85.839   -95.608
10388.9     85.404   -95.116
10540.1     85.008   -94.199
10693.4     84.698   -92.909
10848.9     84.495   -91.439
11006.7     84.377   -89.951
11166.8     84.361   -88.602
11329.2     84.421   -87.548
11494.0     84.529   -86.852
11661.2     84.678   -86.552
11830.8     84.839   -86.661
12002.9     85.029   -87.199
12177.5     85.220   -88.197
12354.6     85.401   -89.615
12534.3     85.549   -91.427
12716.6     85.646   -93.592
12901.6     85.676   -96.020
13089.2     85.668   -98.662
13279.6     85.602  -101.475
13472.8     85.466  -104.358
13668.8     85.249  -107.212
13867.6     84.932  -109.925
14069.3     84.531  -112.358
14273.9     84.099  -114.445
14481.5     83.653  -116.146
14692.2     83.211  -117.447
14905.9     82.768  -118.390
15122.7     82.356  -119.083
15342.7     82.005  -119.670
15565.8     81.716  -120.280
15792.2     81.460  -121.005
16021.9     81.166  -121.883
16255.0     80.792  -122.774
16491.4     80.357  -123.488
16731.3     79.913  -123.946
16974.7     79.443  -124.071
17221.6     79.001  -123.820
17472.1     78.581  -123.242
17726.2     78.154  -122.282
17984.0     77.777  -120.915
18245.6     77.495  -119.298
18511.0     77.336  -117.655
18780.2     77.334  -116.314
19053.4     77.426  -115.572
19330.5     77.523  -115.489
19611.7     77.549  -115.925
19897.0     77.492  -116.675
20186.4     77.350  -117.530
20480.0     77.161  -118.323
20777.9     76.964  -118.989
21080.1     76.766  -119.545
21386.7     76.568  -120.020
21697.8     76.370  -120.447
22013.4     76.172  -120.841
22333.6     75.974  -121.212
22658.4     75.776  -121.564
22988.0     75.578  -121.901
23322.4     75.380  -122.225
23661.6     75.182  -122.539
24005.8     74.984  -122.844
24355.0     74.786  -123.141
24709.2     74.588  -123.431
25068.6     74.389  -123.714
25433.2     74.191  -123.991
25803.2     73.993  -124.263
26178.5     73.795  -124.529
26559.3     73.597  -124.790
26945.6     73.399  -125.046
27337.5     73.201  -125.299
27735.2     73.003  -125.547
28138.6     72.805  -125.791
28547.9     72.607  -126.030
28963.1     72.409  -126.266
29384.4     72.211  -126.498
29811.8     72.013  -126.727
30245.4     71.815  -126.952
30685.3     71.617  -127.174
31131.7     71.418  -127.392
31584.5     71.220  -127.608
32043.9     71.022  -127.820
32510.0     70.824  -128.029
32982.8     70.626  -128.235
33462.6     70.428  -128.438
33949.3     70.230  -128.638
34443.1     70.032  -128.836
34944.1     69.834  -129.030
35452.4     69.636  -129.223
35968.0     69.438  -129.412
36491.2     69.240  -129.599
37022.0     69.042  -129.784
37560.5     68.844  -129.971
38106.8     68.648  -130.141
38661.1     68.461  -130.303
39223.4     68.319  -130.428
39793.9     68.222  -130.525
