Freq[Hz]     dBSPL  Phase[Deg]
5.00000     56.694    65.222
5.07273     56.734    65.240
5.14651     56.787    65.263
5.22137     56.857    65.298
5.29732     56.935    65.341
5.37437     57.021    65.391
5.45254     57.107    65.443
5.53185     57.193    65.497
5.61231     57.279    65.551
5.69394     57.366    65.607
5.77676     57.452    65.664
5.86079     57.538    65.721
5.94604     57.624    65.780
6.03252     57.710    65.840
6.12027     57.796    65.901
6.20929     57.882    65.963
6.29961     57.968    66.026
6.39124     58.054    66.090
6.48420     58.140    66.155
6.57851     58.226    66.221
6.67420     58.312    66.289
6.77128     58.398    66.357
6.86977     58.484    66.427
6.96969     58.571    66.498
7.07107     58.657    66.571
7.17392     58.743    66.644
7.27827     58.829    66.719
7.38413     58.915    66.795
7.49154     59.001    66.873
7.60050     59.087    66.952
7.71105     59.173    67.033
7.82321     59.259    67.115
7.93701     59.345    67.198
8.05245     59.431    67.283
8.16958     59.517    67.369
8.28841     59.603    67.457
8.40896     59.690    67.547
8.53128     59.776    67.639
8.65537     59.862    67.732
8.78126     59.948    67.826
8.90899     60.034    67.923
9.03857     60.120    68.022
9.17004     60.206    68.122
9.30342     60.292    68.225
9.43874     60.378    68.329
9.57603     60.464    68.436
9.71532     60.550    68.544
9.85663     60.636    68.655
10.0000     60.722    68.769
10.1455     60.808    68.884
10.2930     60.895    69.002
10.4427     60.981    69.123
10.5946     61.067    69.246
10.7487     61.153    69.372
10.9051     61.239    69.501
11.0637     61.325    69.633
11.2246     61.411    69.768
11.3879     61.497    69.906
11.5535     61.583    70.048
11.7216     61.669    70.193
11.8921     61.755    70.342
12.0650     61.841    70.495
12.2405     61.927    70.652
12.4186     62.013    70.813
12.5992     62.100    70.979
12.7825     62.186    71.150
12.9684     62.272    71.326
13.1570     62.358    71.508
13.3484     62.444    71.696
13.5426     62.530    71.891
13.7395     62.616    72.093
13.9394     62.702    72.303
14.1421     62.788    72.522
14.3478     62.874    72.751
14.5565     62.960    72.991
14.7683     63.046    73.245
14.9831     63.132    73.514
15.2010     63.218    73.803
15.4221     63.305    74.115
15.6464     63.391    74.460
15.8740     63.477    74.854
16.1049     63.567    75.315
16.3392     63.668    75.857
16.5768     63.793    76.458
16.8179     63.953    77.034
17.0626     64.143    77.489
17.3107     64.356    77.725
17.5625     64.566    77.678
17.8180     64.747    77.393
18.0771     64.889    76.974
18.3401     64.987    76.536
18.6068     65.048    76.185
18.8775     65.086    75.988
19.1521     65.110    75.970
19.4306     65.132    76.139
19.7133     65.161    76.487
20.0000     65.208    76.975
20.2909     65.279    77.549
20.5860     65.374    78.149
20.8855     65.490    78.716
21.1893     65.617    79.224
21.4975     65.750    79.672
21.8102     65.886    80.069
22.1274     66.022    80.429
22.4492     66.158    80.759
22.7758     66.294    81.063
23.1071     66.428    81.344
23.4432     66.558    81.610
23.7841     66.682    81.878
24.1301     66.797    82.182
24.4811     66.905    82.564
24.8372     67.013    83.067
25.1984     67.133    83.718
25.5649     67.286    84.489
25.9368     67.481    85.300
26.3141     67.725    86.051
26.6968     68.019    86.604
27.0851     68.344    86.833
27.4791     68.679    86.667
27.8788     68.996    86.087
28.2843     69.269    85.161
28.6957     69.484    84.009
29.1131     69.635    82.775
29.5365     69.733    81.585
29.9661     69.790    80.501
30.4020     69.814    79.542
30.8442     69.803    78.728
31.2929     69.753    78.125
31.7480     69.673    77.815
32.2098     69.575    77.859
32.6783     69.476    78.302
33.1536     69.399    79.141
33.6359     69.359    80.335
34.1251     69.379    81.821
34.6215     69.478    83.478
35.1250     69.659    85.159
35.6359     69.924    86.717
36.1543     70.266    87.996
36.6802     70.671    88.859
37.2137     71.125    89.169
37.7550     71.594    88.789
38.3041     72.025    87.684
38.8613     72.378    85.938
39.4265     72.624    83.722
40.0000     72.739    81.298
40.5818     72.724    78.959
41.1721     72.579    77.007
41.7710     72.332    75.730
42.3785     72.024    75.319
42.9949     71.698    75.905
43.6203     71.447    77.421
44.2548     71.339    79.521
44.8985     71.385    81.803
45.5515     71.576    83.889
46.2141     71.859    85.495
46.8863     72.179    86.517
47.5683     72.489    86.986
48.2602     72.756    87.044
48.9621     72.967    86.876
49.6743     73.118    86.682
50.3968     73.224    86.643
51.1299     73.308    86.878
51.8736     73.405    87.420
52.6281     73.553    88.168
53.3936     73.760    88.942
54.1702     74.022    89.557
54.9581     74.314    89.859
55.7575     74.598    89.813
56.5685     74.849    89.509
57.3914     75.058    89.085
58.2261     75.229    88.681
59.0730     75.378    88.397
59.9323     75.523    88.266
60.8040     75.686    88.249
61.6884     75.873    88.271
62.5857     76.089    88.232
63.4960     76.326    88.025
64.4196     76.561    87.605
65.3566     76.783    86.974
66.3073     76.974    86.171
67.2717     77.123    85.300
68.2502     77.236    84.462
69.2429     77.316    83.735
70.2501     77.376    83.187
71.2719     77.432    82.847
72.3086     77.506    82.680
73.3603     77.608    82.590
74.4274     77.737    82.474
75.5099     77.887    82.232
76.6083     78.040    81.803
77.7226     78.174    81.194
78.8531     78.280    80.452
80.0000     78.345    79.641
81.1636     78.359    78.864
82.3442     78.322    78.249
83.5419     78.235    77.948
84.7570     78.116    78.130
85.9899     78.014    78.851
87.2406     77.966    80.007
88.5096     77.995    81.434
89.7970     78.114    82.914
91.1031     78.299    84.257
92.4282     78.525    85.394
93.7726     78.776    86.330
95.1366     79.044    87.093
96.5204     79.334    87.679
97.9243     79.636    88.073
99.3486     79.947    88.280
100.794     80.272    88.262
102.260     80.589    88.007
103.747     80.900    87.531
105.256     81.196    86.826
106.787     81.459    85.935
108.340     81.692    84.924
109.916     81.892    83.845
111.515     82.058    82.758
113.137     82.199    81.709
114.783     82.316    80.721
116.452     82.417    79.821
118.146     82.510    79.001
119.865     82.593    78.247
121.608     82.668    77.566
123.377     82.741    76.950
125.171     82.806    76.394
126.992     82.869    75.912
128.839     82.933    75.490
130.713     82.995    75.122
132.615     83.059    74.803
134.543     83.122    74.523
136.500     83.184    74.297
138.486     83.248    74.129
140.500     83.315    74.016
142.544     83.388    73.948
144.617     83.467    73.909
146.721     83.552    73.892
148.855     83.640    73.887
151.020     83.726    73.908
153.217     83.813    73.981
155.445     83.902    74.135
157.706     84.003    74.383
160.000     84.129    74.703
162.327     84.288    75.017
164.688     84.477    75.231
167.084     84.682    75.284
169.514     84.891    75.147
171.980     85.090    74.829
174.481     85.260    74.412
177.019     85.410    73.984
179.594     85.543    73.598
182.206     85.668    73.301
184.856     85.801    73.085
187.545     85.947    72.896
190.273     86.106    72.684
193.041     86.277    72.386
195.849     86.437    71.987
198.697     86.581    71.541
201.587     86.704    71.119
204.520     86.811    70.800
207.494     86.917    70.644
210.512     87.041    70.648
213.574     87.201    70.738
216.681     87.401    70.800
219.833     87.634    70.730
223.030     87.884    70.461
226.274     88.138    69.975
229.565     88.385    69.285
232.905     88.613    68.431
236.292     88.819    67.480
239.729     89.007    66.475
243.216     89.177    65.447
246.754     89.335    64.422
250.343     89.486    63.399
253.984     89.630    62.368
257.678     89.768    61.315
261.426     89.893    60.253
265.229     90.007    59.205
269.087     90.115    58.183
273.001     90.219    57.189
276.972     90.322    56.215
281.000     90.425    55.242
285.088     90.529    54.254
289.234     90.631    53.235
293.441     90.727    52.173
297.709     90.811    51.082
302.040     90.878    50.003
306.433     90.932    48.981
310.890     90.981    48.040
315.412     91.034    47.178
320.000     91.098    46.361
324.655     91.175    45.535
329.377     91.263    44.647
334.168     91.351    43.670
339.028     91.434    42.601
343.959     91.503    41.458
348.962     91.554    40.280
354.038     91.587    39.105
359.188     91.604    37.971
364.412     91.610    36.902
369.713     91.612    35.900
375.090     91.612    34.952
380.546     91.612    34.044
386.081     91.612    33.165
391.697     91.612    32.308
397.394     91.612    31.466
403.175     91.612    30.634
409.039     91.612    29.803
414.989     91.612    28.966
421.025     91.612    28.106
427.149     91.609    27.203
433.362     91.597    26.243
439.665     91.566    25.242
446.060     91.504    24.265
452.548     91.414    23.406
459.131     91.303    22.744
465.809     91.187    22.320
472.584     91.089    22.111
479.458     91.020    22.033
486.432     90.980    21.994
493.507     90.961    21.933
500.686     90.956    21.821
507.968     90.954    21.665
515.357     90.954    21.481
522.853     90.954    21.289
530.458     90.954    21.105
538.174     90.954    20.950
546.002     90.959    20.843
553.943     90.974    20.794
562.001     91.014    20.770
570.175     91.083    20.686
578.469     91.175    20.456
586.883     91.275    20.031
595.419     91.367    19.406
604.080     91.438    18.633
612.866     91.485    17.788
621.780     91.515    16.923
630.824     91.537    16.039
640.000     91.550    15.108
649.309     91.547    14.115
658.753     91.519    13.086
668.335     91.462    12.081
678.056     91.376    11.168
687.919     91.270    10.402
697.925     91.156     9.799
708.077     91.045     9.334
718.376     90.940     8.966
728.825     90.843     8.652
739.426     90.746     8.370
750.181     90.645     8.115
761.093     90.533     7.911
772.163     90.405     7.817
783.394     90.266     7.898
794.789     90.125     8.206
806.349     90.000     8.748
818.078     89.906     9.483
829.977     89.850    10.348
842.050     89.838    11.279
854.298     89.874    12.200
866.724     89.959    13.020
879.330     90.087    13.639
892.120     90.244    13.961
905.097     90.404    13.952
918.262     90.544    13.658
931.618     90.654    13.171
945.169     90.731    12.595
958.917     90.787    11.996
972.864     90.829    11.378
987.015     90.856    10.737
1001.37     90.863    10.090
1015.94     90.850     9.477
1030.71     90.822     8.930
1045.71     90.783     8.474
1060.92     90.743     8.110
1076.35     90.708     7.806
1092.00     90.679     7.524
1107.89     90.653     7.229
1124.00     90.625     6.899
1140.35     90.583     6.547
1156.94     90.521     6.234
1173.77     90.444     6.020
1190.84     90.357     5.948
1208.16     90.271     6.051
1225.73     90.207     6.282
1243.56     90.165     6.566
1261.65     90.142     6.854
1280.00     90.134     7.104
1298.62     90.132     7.309
1317.51     90.132     7.480
1336.67     90.132     7.629
1356.11     90.132     7.769
1375.84     90.132     7.907
1395.85     90.132     8.048
1416.15     90.132     8.198
1436.75     90.132     8.364
1457.65     90.132     8.553
1478.85     90.132     8.777
1500.36     90.133     9.055
1522.19     90.140     9.404
1544.33     90.160     9.831
1566.79     90.203    10.313
1589.58     90.277    10.797
1612.70     90.387    11.193
1636.16     90.526    11.408
1659.95     90.680    11.369
1684.10     90.827    11.051
1708.60     90.948    10.505
1733.45     91.034     9.817
1758.66     91.084     9.074
1784.24     91.100     8.354
1810.19     91.088     7.713
1836.52     91.052     7.203
1863.24     91.000     6.875
1890.34     90.945     6.760
1917.83     90.904     6.850
1945.73     90.896     7.082
1974.03     90.927     7.352
2002.74     90.998     7.548
2031.87     91.097     7.573
2061.43     91.206     7.377
2091.41     91.307     6.976
2121.83     91.392     6.409
2152.69     91.457     5.727
2184.01     91.500     4.978
2215.77     91.528     4.183
2248.00     91.540     3.321
2280.70     91.526     2.386
2313.87     91.472     1.434
2347.53     91.368     0.582
2381.68     91.220    -0.032
2416.32     91.042    -0.280
2451.46     90.868    -0.111
2487.12     90.731     0.418
2523.30     90.654     1.167
2560.00     90.645     1.957
2597.24     90.692     2.631
2635.01     90.779     3.083
2673.34     90.882     3.264
2712.23     90.978     3.200
2751.68     91.058     2.960
2791.70     91.119     2.611
2832.31     91.161     2.208
2873.50     91.190     1.777
2915.30     91.209     1.321
2957.70     91.216     0.835
3000.72     91.200     0.352
3044.37     91.163    -0.061
3088.65     91.113    -0.354
3133.58     91.061    -0.508
3179.16     91.020    -0.538
3225.40     91.000    -0.506
3272.31     90.997    -0.481
3319.91     91.006    -0.502
3368.20     91.019    -0.577
3417.19     91.034    -0.698
3466.89     91.048    -0.861
3517.32     91.062    -1.067
3568.48     91.073    -1.320
3620.39     91.078    -1.618
3673.05     91.071    -1.938
3726.47     91.050    -2.239
3780.67     91.021    -2.489
3835.67     90.988    -2.675
3891.46     90.957    -2.797
3948.06     90.934    -2.881
4005.49     90.918    -2.961
4063.75     90.906    -3.050
4122.86     90.895    -3.149
4182.82     90.884    -3.255
4243.66     90.873    -3.364
4305.39     90.863    -3.474
4368.01     90.852    -3.584
4431.55     90.841    -3.694
4496.01     90.830    -3.804
4561.40     90.819    -3.913
4627.75     90.808    -4.021
4695.06     90.797    -4.129
4763.35     90.786    -4.235
4832.64     90.775    -4.341
4902.93     90.764    -4.446
4974.24     90.753    -4.550
5046.60     90.742    -4.653
5120.00     90.731    -4.756
5194.47     90.720    -4.857
5270.03     90.710    -4.958
5346.68     90.699    -5.058
5424.45     90.688    -5.157
5503.35     90.677    -5.255
5583.40     90.666    -5.353
5664.61     90.655    -5.450
5747.01     90.644    -5.546
5830.60     90.633    -5.642
5915.41     90.622    -5.736
6001.45     90.611    -5.831
6088.74     90.600    -5.925
6177.30     90.589    -6.018
6267.15     90.578    -6.110
6358.31     90.567    -6.203
6450.80     90.556    -6.294
6544.62     90.546    -6.385
6639.82     90.535    -6.476
6736.40     90.524    -6.566
6834.38     90.513    -6.656
6933.79     90.502    -6.746
7034.64     90.491    -6.835
7136.96     90.480    -6.924
7240.77     90.469    -7.012
7346.09     90.458    -7.100
7452.94     90.447    -7.188
7561.35     90.436    -7.275
7671.33     90.425    -7.363
7782.91     90.414    -7.450
7896.12     90.403    -7.536
8010.97     90.393    -7.623
8127.49     90.382    -7.709
8245.71     90.371    -7.795
8365.65     90.360    -7.881
8487.33     90.349    -7.967
8610.78     90.338    -8.052
8736.03     90.327    -8.138
8863.09     90.316    -8.223
8992.01     90.305    -8.308
9122.80     90.294    -8.393
9255.50     90.283    -8.478
9390.12     90.272    -8.563
9526.70     90.261    -8.648
9665.27     90.250    -8.733
9805.86     90.239    -8.817
9948.49     90.229    -8.902
10093.2     90.218    -8.986
10240.0     90.207    -9.070
10388.9     90.196    -9.154
10540.1     90.185    -9.238
10693.4     90.174    -9.322
10848.9     90.163    -9.406
11006.7     90.152    -9.489
11166.8     90.141    -9.573
11329.2     90.130    -9.656
11494.0     90.119    -9.739
11661.2     90.108    -9.822
11830.8     90.097    -9.905
12002.9     90.086    -9.987
12177.5     90.076   -10.069
12354.6     90.065   -10.150
12534.3     90.054   -10.231
12716.6     90.043   -10.311
12901.6     90.032   -10.391
13089.2     90.021   -10.470
13279.6     90.010   -10.548
13472.8     89.999   -10.625
13668.8     89.988   -10.701
13867.6     89.977   -10.776
14069.3     89.966   -10.849
14273.9     89.955   -10.920
14481.5     89.944   -10.989
14692.2     89.933   -11.056
14905.9     89.922   -11.120
15122.7     89.912   -11.180
15342.7     89.901   -11.236
15565.8     89.890   -11.288
15792.2     89.879   -11.333
16021.9     89.868   -11.372
16255.0     89.857   -11.401
16491.4     89.846   -11.418
16731.3     89.835   -11.418
16974.7     89.826   -11.395
17221.6     89.818   -11.346
17472.1     89.816   -11.272
17726.2     89.822   -11.182
17984.0     89.837   -11.098
18245.6     89.860   -11.038
18511.0     89.888   -11.016
18780.2     89.917   -11.031
19053.4     89.945   -11.066
19330.5     89.974   -11.106
19611.7     90.006   -11.148
19897.0     90.043   -11.196
20186.4     90.087   -11.266
20480.0     90.137   -11.374
20777.9     90.190   -11.525
21080.1     90.246   -11.715
21386.7     90.305   -11.943
21697.8     90.367   -12.212
22013.4     90.437   -12.540
22333.6     90.512   -12.952
22658.4     90.588   -13.472
22988.0     90.658   -14.111
23322.4     90.715   -14.845
23661.6     90.755   -15.639
24005.8     90.777   -16.454
24355.0     90.786   -17.254
24709.2     90.789   -18.030
25068.6     90.789   -18.794
25433.2     90.789   -19.565
25803.2     90.789   -20.365
26178.5     90.788   -21.215
26559.3     90.781   -22.135
26945.6     90.763   -23.132
27337.5     90.726   -24.187
27735.2     90.666   -25.268
28138.6     90.579   -26.323
28547.9     90.471   -27.303
28963.1     90.348   -28.187
29384.4     90.214   -28.973
29811.8     90.074   -29.673
30245.4     89.923   -30.280
30685.3     89.764   -30.770
31131.7     89.602   -31.132
31584.5     89.437   -31.354
32043.9     89.282   -31.436
32510.0     89.144   -31.425
32982.8     89.019   -31.361
33462.6     88.906   -31.256
33949.3     88.805   -31.126
34443.1     88.714   -30.981
34944.1     88.632   -30.821
35452.4     88.561   -30.657
35968.0     88.500   -30.505
36491.2     88.448   -30.370
37022.0     88.404   -30.257
37560.5     88.369   -30.182
38106.8     88.344   -30.148
38661.1     88.327   -30.160
39223.4     88.317   -30.190
39793.9     88.311   -30.232
