* This data was exported from the Dayton Audio Test System: DATS
*
* Piston Diameter = 18 mm
* f(s)= 940.1 Hz
* R(e)= 3.532 Ohms
* Z(max)= 16.71 Ohms
* Q(ms)= 6.303
* Q(es)= 1.69
* Q(ts)= 1.333
* V(as)= 0 liters     (0 cubic feet)
* L(e)= 0 mH
* n(0)= 0 %
* SPL= 0 1W/1m
* M(ms)= 0 grams
* C(ms)= 0 mm/N
* BL= 0 
* K(r)= 0.5742 
* X(r)= 0.1837 
* K(i)= 9.2e-06 
* X(i)= 1.089 
*
*
Freq            Impedance       Phase
1.029    	3.539    	0.092    
1.059    	3.539    	0.092    
1.091    	3.539    	0.092    
1.122    	3.539    	0.092    
1.155    	3.539    	0.092    
1.189    	3.539    	0.092    
1.224    	3.539    	0.092    
1.260    	3.539    	0.092    
1.297    	3.539    	0.092    
1.335    	3.531    	0.082    
1.374    	3.531    	0.082    
1.414    	3.531    	0.082    
1.456    	3.531    	0.082    
1.498    	3.531    	0.082    
1.542    	3.531    	0.082    
1.587    	3.531    	0.082    
1.634    	3.531    	0.082    
1.682    	3.527    	0.072    
1.731    	3.527    	0.072    
1.782    	3.527    	0.072    
1.834    	3.527    	0.072    
1.888    	3.527    	0.072    
1.943    	3.527    	0.072    
2.000    	3.528    	0.074    
2.059    	3.528    	0.074    
2.119    	3.528    	0.074    
2.181    	3.528    	0.074    
2.245    	3.528    	0.074    
2.311    	3.528    	0.074    
2.378    	3.531    	0.082    
2.448    	3.531    	0.082    
2.520    	3.531    	0.082    
2.594    	3.531    	0.082    
2.670    	3.533    	0.095    
2.748    	3.533    	0.095    
2.828    	3.533    	0.095    
2.911    	3.533    	0.095    
2.997    	3.531    	0.131    
3.084    	3.531    	0.131    
3.175    	3.531    	0.131    
3.268    	3.531    	0.131    
3.364    	3.535    	0.169    
3.462    	3.535    	0.169    
3.564    	3.535    	0.169    
3.668    	3.531    	0.215    
3.775    	3.531    	0.215    
3.886    	3.531    	0.215    
4.000    	3.533    	0.252    
4.117    	3.533    	0.252    
4.238    	3.533    	0.252    
4.362    	3.529    	0.287    
4.490    	3.529    	0.287    
4.621    	3.529    	0.287    
4.757    	3.531    	0.325    
4.896    	3.531    	0.325    
5.040    	3.533    	0.352    
5.187    	3.533    	0.352    
5.339    	3.536    	0.367    
5.496    	3.536    	0.367    
5.657    	3.538    	0.361    
5.823    	3.538    	0.361    
5.993    	3.537    	0.342    
6.169    	3.537    	0.342    
6.350    	3.536    	0.329    
6.536    	3.536    	0.329    
6.727    	3.535    	0.329    
6.924    	3.535    	0.329    
7.127    	3.534    	0.337    
7.336    	3.534    	0.342    
7.551    	3.534    	0.342    
7.772    	3.533    	0.343    
8.000    	3.533    	0.350    
8.234    	3.533    	0.350    
8.476    	3.532    	0.369    
8.724    	3.532    	0.398    
8.980    	3.531    	0.433    
9.243    	3.531    	0.433    
9.514    	3.531    	0.466    
9.792    	3.531    	0.491    
10.079    	3.530    	0.513    
10.375    	3.529    	0.529    
10.679    	3.529    	0.538    
10.992    	3.528    	0.542    
11.314    	3.528    	0.551    
11.645    	3.528    	0.566    
11.986    	3.528    	0.580    
12.338    	3.528    	0.587    
12.699    	3.528    	0.591    
13.071    	3.529    	0.596    
13.454    	3.529    	0.605    
13.849    	3.528    	0.622    
14.254    	3.528    	0.643    
14.672    	3.529    	0.663    
15.102    	3.529    	0.668    
15.545    	3.529    	0.668    
16.000    	3.529    	0.673    
16.469    	3.530    	0.692    
16.951    	3.530    	0.729    
17.448    	3.530    	0.761    
17.959    	3.530    	0.785    
18.486    	3.530    	0.818    
19.027    	3.531    	0.858    
19.585    	3.532    	0.906    
20.159    	3.532    	0.931    
20.749    	3.531    	0.956    
21.357    	3.531    	0.984    
21.983    	3.532    	1.003    
22.627    	3.532    	1.016    
23.290    	3.532    	1.030    
23.973    	3.532    	1.049    
24.675    	3.531    	1.073    
25.398    	3.531    	1.099    
26.143    	3.531    	1.120    
26.909    	3.532    	1.148    
27.697    	3.532    	1.186    
28.509    	3.532    	1.223    
29.344    	3.533    	1.269    
30.204    	3.534    	1.309    
31.089    	3.534    	1.326    
32.000    	3.534    	1.340    
32.938    	3.535    	1.374    
33.903    	3.536    	1.420    
34.896    	3.536    	1.469    
35.919    	3.537    	1.513    
36.971    	3.537    	1.570    
38.055    	3.537    	1.633    
39.170    	3.537    	1.710    
40.317    	3.537    	1.752    
41.499    	3.537    	1.775    
42.715    	3.538    	1.809    
43.967    	3.538    	1.869    
45.255    	3.538    	1.915    
46.581    	3.542    	1.992    
47.946    	3.542    	2.047    
49.351    	3.542    	1.985    
50.797    	3.538    	2.068    
52.285    	3.539    	2.229    
53.817    	3.542    	2.303    
55.394    	3.541    	2.339    
57.018    	3.543    	2.382    
58.688    	3.541    	2.462    
60.408    	3.541    	2.563    
62.178    	3.545    	2.654    
64.000    	3.547    	2.741    
65.875    	3.545    	2.772    
67.806    	3.545    	2.890    
69.792    	3.546    	2.960    
71.838    	3.550    	3.035    
73.943    	3.549    	3.144    
76.109    	3.549    	3.210    
78.339    	3.550    	3.317    
80.635    	3.551    	3.403    
82.998    	3.549    	3.519    
85.430    	3.553    	3.587    
87.933    	3.555    	3.688    
90.510    	3.555    	3.791    
93.162    	3.556    	3.898    
95.892    	3.559    	4.011    
98.701    	3.559    	4.213    
101.594    	3.559    	4.334    
104.571    	3.560    	4.447    
107.635    	3.562    	4.522    
110.789    	3.562    	4.629    
114.035    	3.564    	4.768    
117.377    	3.569    	4.911    
120.816    	3.568    	5.034    
124.356    	3.570    	5.172    
128.000    	3.573    	5.311    
131.751    	3.576    	5.469    
135.611    	3.576    	5.638    
139.585    	3.577    	5.795    
143.675    	3.580    	5.976    
147.885    	3.585    	6.120    
152.219    	3.588    	6.315    
156.679    	3.589    	6.466    
161.270    	3.591    	6.699    
165.995    	3.595    	6.912    
170.860    	3.599    	7.053    
175.866    	3.600    	7.270    
181.019    	3.603    	7.493    
186.324    	3.607    	7.686    
191.783    	3.614    	7.956    
197.403    	3.620    	8.209    
203.187    	3.622    	8.465    
209.141    	3.627    	8.694    
215.269    	3.636    	8.969    
221.577    	3.641    	9.237    
228.070    	3.643    	9.475    
234.753    	3.649    	9.790    
241.632    	3.659    	10.061    
248.712    	3.665    	10.374    
256.000    	3.672    	10.692    
263.501    	3.678    	11.045    
271.223    	3.688    	11.364    
279.170    	3.698    	11.695    
287.350    	3.710    	12.075    
295.770    	3.720    	12.498    
304.437    	3.730    	12.903    
313.358    	3.741    	13.318    
322.540    	3.755    	13.749    
331.991    	3.771    	14.233    
341.719    	3.787    	14.689    
351.732    	3.805    	15.162    
362.039    	3.824    	15.670    
372.647    	3.844    	16.195    
383.567    	3.868    	16.797    
394.806    	3.894    	17.341    
406.375    	3.921    	17.958    
418.282    	3.954    	18.616    
430.539    	3.987    	19.261    
443.155    	4.027    	19.951    
456.140    	4.069    	20.691    
469.506    	4.119    	21.439    
483.264    	4.181    	22.240    
497.424    	4.251    	23.041    
512.000    	4.331    	23.764    
527.003    	4.425    	24.398    
542.445    	4.528    	24.962    
558.340    	4.631    	25.352    
574.701    	4.723    	25.574    
591.541    	4.795    	25.849    
608.874    	4.853    	26.423    
626.715    	4.918    	27.433    
645.080    	5.009    	28.743    
663.982    	5.139    	30.317    
683.438    	5.312    	31.938    
703.464    	5.540    	33.576    
724.077    	5.836    	35.176    
745.294    	6.215    	36.668    
767.133    	6.711    	37.967    
789.612    	7.358    	38.876    
812.749    	8.221    	39.173    
836.565    	9.404    	38.403    
861.078    	11.019    	35.683    
886.309    	13.101    	29.694    
912.280    	15.291    	19.134    
939.012    	16.603    	4.251    
966.527    	16.141    	-11.614    
994.849    	14.307    	-24.316    
1024.000    	12.194    	-32.483    
1054.005    	10.376    	-37.052    
1084.890    	8.961    	-39.102    
1116.680    	7.891    	-39.554    
1149.401    	7.061    	-39.007    
1183.081    	6.420    	-37.887    
1217.748    	5.919    	-36.428    
1253.431    	5.522    	-34.733    
1290.159    	5.204    	-32.918    
1327.964    	4.948    	-31.071    
1366.876    	4.740    	-29.206    
1406.929    	4.568    	-27.385    
1448.155    	4.424    	-25.628    
1490.589    	4.309    	-23.958    
1534.266    	4.214    	-22.338    
1579.224    	4.132    	-20.771    
1625.499    	4.063    	-19.315    
1673.129    	4.004    	-17.903    
1722.156    	3.955    	-16.540    
1772.619    	3.915    	-15.273    
1824.561    	3.884    	-14.024    
1878.024    	3.857    	-12.873    
1933.055    	3.837    	-11.836    
1989.697    	3.815    	-10.836    
2048.000    	3.793    	-9.806    
2108.011    	3.775    	-8.871    
2169.780    	3.766    	-7.903    
2233.360    	3.759    	-6.999    
2298.802    	3.751    	-6.134    
2366.162    	3.747    	-5.284    
2435.496    	3.746    	-4.482    
2506.862    	3.749    	-3.679    
2580.318    	3.752    	-2.903    
2655.927    	3.758    	-2.169    
2733.752    	3.765    	-1.469    
2813.857    	3.778    	-0.845    
2896.309    	3.795    	-0.239    
2981.178    	3.807    	0.226    
3068.533    	3.814    	0.626    
3158.448    	3.816    	1.057    
3250.997    	3.815    	1.482    
3346.259    	3.810    	1.986    
3444.312    	3.811    	2.592    
3545.238    	3.813    	3.147    
3649.121    	3.818    	3.699    
3756.049    	3.821    	4.287    
3866.109    	3.826    	4.914    
3979.395    	3.837    	5.515    
4096.000    	3.851    	6.083    
4216.022    	3.863    	6.621    
4339.561    	3.878    	7.162    
4466.720    	3.894    	7.677    
4597.605    	3.909    	8.210    
4732.325    	3.923    	8.723    
4870.992    	3.939    	9.229    
5013.723    	3.956    	9.773    
5160.637    	3.974    	10.251    
5311.855    	3.993    	10.736    
5467.504    	4.013    	11.216    
5627.714    	4.032    	11.721    
5792.619    	4.053    	12.210    
5962.355    	4.075    	12.706    
6137.066    	4.103    	13.173    
6316.896    	4.129    	13.611    
6501.995    	4.154    	13.980    
6692.518    	4.173    	14.345    
6888.623    	4.192    	14.829    
7090.476    	4.213    	15.319    
7298.242    	4.238    	15.817    
7512.097    	4.265    	16.310    
7732.218    	4.295    	16.811    
7958.790    	4.326    	17.241    
8192.000    	4.355    	17.719    
8432.044    	4.386    	18.169    
8679.122    	4.419    	18.622    
8933.439    	4.454    	19.089    
9195.209    	4.488    	19.546    
9464.649    	4.527    	19.977    
9741.985    	4.563    	20.373    
10027.447    	4.601    	20.799    
10321.273    	4.642    	21.225    
10623.710    	4.681    	21.659    
10935.008    	4.721    	22.043    
11255.428    	4.762    	22.459    
11585.238    	4.806    	22.892    
11924.711    	4.851    	23.298    
12274.132    	4.900    	23.699    
12633.791    	4.948    	24.066    
13003.989    	4.999    	24.433    
13385.035    	5.050    	24.794    
13777.247    	5.098    	25.173    
14180.951    	5.149    	25.510    
14596.485    	5.202    	25.870    
15024.194    	5.254    	26.242    
15464.437    	5.311    	26.600    
15917.579    	5.366    	26.934    
16384.000    	5.426    	27.245    
16864.088    	5.483    	27.548    
17358.243    	5.542    	27.881    
17866.879    	5.598    	28.177    
18390.418    	5.657    	28.447    
18929.299    	5.723    	28.742    
19483.969    	5.784    	28.997    
20054.893    	5.842    	29.282    
20642.546    	5.904    	29.528    
