* This data was exported from the Dayton Audio Test System: DATS
*
D    	34	[mm]
Re   	3.11	[Ohms]
Fs   	763.8	[Hz]
Zm   	7.944	[Ohms]
BL   	0	[N/A]
Qms  	3.709
Qes  	2.386
Qts  	1.452
Vas  	0 	[liters]
L10k 	0.006894	[mH]
n0   	0	[%]
dBSPL  	0	[1W/1m]
Ms   	0	[grams]
Cms  	0	[mm/N]
*
*
Freq            Impedance       Phase
1.029    	3.126    	0.707    
1.059    	3.126    	0.707    
1.091    	3.126    	0.707    
1.122    	3.126    	0.707    
1.155    	3.126    	0.707    
1.189    	3.126    	0.707    
1.224    	3.126    	0.707    
1.260    	3.126    	0.707    
1.297    	3.126    	0.707    
1.335    	3.119    	0.794    
1.374    	3.119    	0.794    
1.414    	3.119    	0.794    
1.456    	3.119    	0.794    
1.498    	3.119    	0.794    
1.542    	3.119    	0.794    
1.587    	3.119    	0.794    
1.634    	3.119    	0.794    
1.682    	3.115    	0.897    
1.731    	3.115    	0.897    
1.782    	3.115    	0.897    
1.834    	3.115    	0.897    
1.888    	3.115    	0.897    
1.943    	3.115    	0.897    
2.000    	3.117    	1.010    
2.059    	3.117    	1.010    
2.119    	3.117    	1.010    
2.181    	3.117    	1.010    
2.245    	3.117    	1.010    
2.311    	3.117    	1.010    
2.378    	3.120    	1.156    
2.448    	3.120    	1.156    
2.520    	3.120    	1.156    
2.594    	3.120    	1.156    
2.670    	3.122    	1.316    
2.748    	3.122    	1.316    
2.828    	3.122    	1.316    
2.911    	3.122    	1.316    
2.997    	3.121    	1.505    
3.084    	3.121    	1.505    
3.175    	3.121    	1.505    
3.268    	3.121    	1.505    
3.364    	3.126    	1.684    
3.462    	3.126    	1.684    
3.564    	3.126    	1.684    
3.668    	3.125    	1.879    
3.775    	3.125    	1.879    
3.886    	3.125    	1.879    
4.000    	3.133    	2.067    
4.117    	3.133    	2.067    
4.238    	3.133    	2.067    
4.362    	3.135    	2.227    
4.490    	3.135    	2.227    
4.621    	3.135    	2.227    
4.757    	3.143    	2.356    
4.896    	3.143    	2.356    
5.040    	3.150    	2.458    
5.187    	3.150    	2.458    
5.339    	3.158    	2.556    
5.496    	3.158    	2.556    
5.657    	3.165    	2.651    
5.823    	3.165    	2.651    
5.993    	3.169    	2.744    
6.169    	3.169    	2.744    
6.350    	3.172    	2.834    
6.536    	3.172    	2.834    
6.727    	3.176    	2.914    
6.924    	3.176    	2.914    
7.127    	3.179    	2.991    
7.336    	3.183    	3.082    
7.551    	3.183    	3.082    
7.772    	3.188    	3.179    
8.000    	3.192    	3.269    
8.234    	3.192    	3.269    
8.476    	3.198    	3.345    
8.724    	3.203    	3.411    
8.980    	3.210    	3.479    
9.243    	3.210    	3.479    
9.514    	3.216    	3.550    
9.792    	3.222    	3.624    
10.079    	3.227    	3.688    
10.375    	3.233    	3.733    
10.679    	3.238    	3.772    
10.992    	3.244    	3.826    
11.314    	3.251    	3.893    
11.645    	3.257    	3.960    
11.986    	3.264    	4.014    
12.338    	3.270    	4.049    
12.699    	3.276    	4.073    
13.071    	3.281    	4.098    
13.454    	3.288    	4.134    
13.849    	3.294    	4.181    
14.254    	3.301    	4.232    
14.672    	3.309    	4.304    
15.102    	3.318    	4.367    
15.545    	3.323    	4.409    
16.000    	3.332    	4.486    
16.469    	3.339    	4.569    
16.951    	3.347    	4.645    
17.448    	3.353    	4.702    
17.959    	3.360    	4.751    
18.486    	3.366    	4.808    
19.027    	3.372    	4.856    
19.585    	3.379    	4.902    
20.159    	3.383    	4.915    
20.749    	3.387    	4.923    
21.357    	3.393    	4.932    
21.983    	3.399    	4.931    
22.627    	3.405    	4.914    
23.290    	3.412    	4.882    
23.973    	3.419    	4.835    
24.675    	3.426    	4.776    
25.398    	3.434    	4.710    
26.143    	3.443    	4.653    
26.909    	3.454    	4.615    
27.697    	3.466    	4.608    
28.509    	3.474    	4.614    
29.344    	3.484    	4.628    
30.204    	3.495    	4.653    
31.089    	3.503    	4.684    
32.000    	3.509    	4.729    
32.938    	3.515    	4.768    
33.903    	3.520    	4.766    
34.896    	3.525    	4.717    
35.919    	3.530    	4.638    
36.971    	3.535    	4.557    
38.055    	3.541    	4.499    
39.170    	3.548    	4.441    
40.317    	3.553    	4.376    
41.499    	3.557    	4.305    
42.715    	3.564    	4.253    
43.967    	3.575    	4.182    
45.255    	3.587    	4.108    
46.581    	3.598    	4.112    
47.946    	3.606    	4.176    
49.351    	3.605    	4.328    
50.797    	3.602    	4.312    
52.285    	3.598    	4.117    
53.817    	3.600    	3.917    
55.394    	3.613    	3.712    
57.018    	3.626    	3.661    
58.688    	3.636    	3.708    
60.408    	3.639    	3.790    
62.178    	3.635    	3.801    
64.000    	3.633    	3.742    
65.875    	3.637    	3.654    
67.806    	3.643    	3.559    
69.792    	3.644    	3.500    
71.838    	3.645    	3.376    
73.943    	3.656    	3.312    
76.109    	3.666    	3.384    
78.339    	3.659    	3.496    
80.635    	3.648    	3.398    
82.998    	3.652    	3.152    
85.430    	3.668    	3.086    
87.933    	3.670    	3.239    
90.510    	3.663    	3.205    
93.162    	3.664    	3.124    
95.892    	3.663    	3.135    
98.701    	3.652    	3.066    
101.594    	3.664    	2.974    
104.571    	3.678    	3.144    
107.635    	3.661    	3.157    
110.789    	3.664    	2.874    
114.035    	3.674    	2.985    
117.377    	3.667    	3.055    
120.816    	3.668    	3.044    
124.356    	3.661    	3.129    
128.000    	3.665    	2.954    
131.751    	3.674    	3.127    
135.611    	3.659    	3.151    
139.585    	3.663    	3.047    
143.675    	3.666    	3.163    
147.885    	3.669    	3.205    
152.219    	3.658    	3.282    
156.679    	3.665    	3.220    
161.270    	3.660    	3.439    
165.995    	3.655    	3.362    
170.860    	3.660    	3.484    
175.866    	3.661    	3.653    
181.019    	3.655    	3.676    
186.324    	3.664    	3.779    
191.783    	3.657    	3.890    
197.403    	3.658    	3.896    
203.187    	3.660    	4.084    
209.141    	3.659    	4.180    
215.269    	3.666    	4.333    
221.577    	3.664    	4.484    
228.070    	3.673    	4.580    
234.753    	3.672    	4.739    
241.632    	3.679    	4.816    
248.712    	3.680    	4.874    
256.000    	3.683    	4.921    
263.501    	3.680    	5.026    
271.223    	3.679    	5.138    
279.170    	3.672    	5.322    
287.350    	3.668    	5.509    
295.770    	3.664    	5.742    
304.437    	3.662    	6.071    
313.358    	3.663    	6.449    
322.540    	3.664    	6.815    
331.991    	3.669    	7.186    
341.719    	3.679    	7.600    
351.732    	3.687    	7.996    
362.039    	3.699    	8.428    
372.647    	3.713    	8.868    
383.567    	3.727    	9.312    
394.806    	3.745    	9.788    
406.375    	3.767    	10.352    
418.282    	3.789    	10.882    
430.539    	3.818    	11.427    
443.155    	3.849    	11.985    
456.140    	3.886    	12.584    
469.506    	3.929    	13.214    
483.264    	3.978    	13.910    
497.424    	4.035    	14.557    
512.000    	4.102    	15.309    
527.003    	4.182    	16.042    
542.445    	4.278    	16.808    
558.340    	4.384    	17.517    
574.701    	4.516    	18.217    
591.541    	4.682    	18.919    
608.874    	4.880    	19.475    
626.715    	5.123    	19.791    
645.080    	5.424    	19.778    
663.982    	5.789    	19.261    
683.438    	6.223    	17.958    
703.464    	6.722    	15.530    
724.077    	7.237    	11.657    
745.294    	7.686    	6.345    
767.133    	7.956    	-0.277    
789.612    	7.930    	-7.404    
812.749    	7.612    	-14.069    
836.565    	7.096    	-19.499    
861.078    	6.510    	-23.324    
886.309    	5.946    	-25.496    
912.280    	5.463    	-26.411    
939.012    	5.055    	-26.436    
966.527    	4.726    	-25.882    
994.849    	4.460    	-24.829    
1024.000    	4.256    	-23.644    
1054.005    	4.086    	-22.360    
1084.890    	3.955    	-20.984    
1116.680    	3.853    	-19.673    
1149.401    	3.767    	-18.459    
1183.081    	3.700    	-17.257    
1217.748    	3.642    	-16.105    
1253.431    	3.594    	-15.032    
1290.159    	3.557    	-14.032    
1327.964    	3.523    	-13.082    
1366.876    	3.499    	-12.184    
1406.929    	3.476    	-11.355    
1448.155    	3.461    	-10.527    
1490.589    	3.448    	-9.778    
1534.266    	3.437    	-9.082    
1579.224    	3.427    	-8.470    
1625.499    	3.417    	-7.818    
1673.129    	3.412    	-7.257    
1722.156    	3.410    	-6.700    
1772.619    	3.403    	-6.195    
1824.561    	3.403    	-5.682    
1878.024    	3.404    	-5.207    
1933.055    	3.404    	-4.780    
1989.697    	3.407    	-4.298    
2048.000    	3.408    	-3.924    
2108.011    	3.408    	-3.517    
2169.780    	3.412    	-3.145    
2233.360    	3.414    	-2.827    
2298.802    	3.416    	-2.482    
2366.162    	3.423    	-2.170    
2435.496    	3.427    	-1.844    
2506.862    	3.430    	-1.525    
2580.318    	3.434    	-1.252    
2655.927    	3.438    	-0.994    
2733.752    	3.443    	-0.743    
2813.857    	3.447    	-0.510    
2896.309    	3.453    	-0.306    
2981.178    	3.456    	-0.039    
3068.533    	3.462    	0.172    
3158.448    	3.468    	0.381    
3250.997    	3.474    	0.631    
3346.259    	3.479    	0.810    
3444.312    	3.483    	0.992    
3545.238    	3.485    	1.189    
3649.121    	3.490    	1.340    
3756.049    	3.495    	1.547    
3866.109    	3.500    	1.741    
3979.395    	3.505    	1.960    
4096.000    	3.508    	2.155    
4216.022    	3.515    	2.334    
4339.561    	3.520    	2.534    
4466.720    	3.526    	2.692    
4597.605    	3.532    	2.845    
4732.325    	3.535    	3.033    
4870.992    	3.541    	3.197    
5013.723    	3.546    	3.378    
5160.637    	3.552    	3.516    
5311.855    	3.558    	3.703    
5467.504    	3.566    	3.900    
5627.714    	3.572    	4.033    
5792.619    	3.580    	4.201    
5962.355    	3.586    	4.359    
6137.066    	3.593    	4.480    
6316.896    	3.600    	4.644    
6501.995    	3.604    	4.760    
6692.518    	3.612    	4.879    
6888.623    	3.613    	5.083    
7090.476    	3.618    	5.233    
7298.242    	3.626    	5.406    
7512.097    	3.632    	5.558    
7732.218    	3.636    	5.741    
7958.790    	3.643    	5.926    
8192.000    	3.652    	6.052    
8432.044    	3.657    	6.233    
8679.122    	3.665    	6.402    
8933.439    	3.671    	6.589    
9195.209    	3.677    	6.765    
9464.649    	3.684    	6.912    
9741.985    	3.691    	7.050    
10027.447    	3.699    	7.193    
10321.273    	3.707    	7.395    
10623.710    	3.714    	7.542    
10935.008    	3.719    	7.725    
11255.428    	3.727    	7.899    
11585.238    	3.735    	8.082    
11924.711    	3.744    	8.257    
12274.132    	3.751    	8.421    
12633.791    	3.760    	8.592    
13003.989    	3.769    	8.790    
13385.035    	3.778    	8.936    
13777.247    	3.787    	9.166    
14180.951    	3.798    	9.333    
14596.485    	3.806    	9.488    
15024.194    	3.816    	9.670    
15464.437    	3.825    	9.790    
15917.579    	3.832    	9.982    
16384.000    	3.837    	10.120    
16864.088    	3.844    	10.255    
17358.243    	3.848    	10.453    
17866.879    	3.851    	10.684    
18390.418    	3.858    	10.904    
18929.299    	3.862    	11.164    
19483.969    	3.870    	11.377    
20054.893    	3.881    	11.648    
20642.546    	3.896    	11.911    
