* This data was exported from the Dayton Audio Test System: DATS
*
* Piston Diameter = 65 mm
* f(s)= 141.4 Hz
* R(e)= 4.196 Ohms
* Z(max)= 13.37 Ohms
* Q(ms)= 4.526
* Q(es)= 2.069
* Q(ts)= 1.42
* V(as)= 1.166 liters     (0.04116 cubic feet)
* L(e)= 0.1361 mH
* n(0)= 0.152 %
* SPL= 83.92 1W/1m
* M(ms)= 1.68 grams
* C(ms)= 0.754 mm/N
* BL= 1.74 
* K(r)= 0.1149 
* X(r)= 0.3772 
* K(i)= 0.001206 
* X(i)= 0.7878 
*
*
Freq            Impedance       Phase
1.029    	4.185    	-0.470    
1.059    	4.185    	-0.470    
1.091    	4.185    	-0.470    
1.122    	4.185    	-0.470    
1.155    	4.185    	-0.470    
1.189    	4.185    	-0.470    
1.224    	4.185    	-0.470    
1.260    	4.185    	-0.470    
1.297    	4.185    	-0.470    
1.335    	4.178    	-0.357    
1.374    	4.178    	-0.357    
1.414    	4.178    	-0.357    
1.456    	4.178    	-0.357    
1.498    	4.178    	-0.357    
1.542    	4.178    	-0.357    
1.587    	4.178    	-0.357    
1.634    	4.178    	-0.357    
1.682    	4.173    	-0.236    
1.731    	4.173    	-0.236    
1.782    	4.173    	-0.236    
1.834    	4.173    	-0.236    
1.888    	4.173    	-0.236    
1.943    	4.173    	-0.236    
2.000    	4.174    	-0.127    
2.059    	4.174    	-0.127    
2.119    	4.174    	-0.127    
2.181    	4.174    	-0.127    
2.245    	4.174    	-0.127    
2.311    	4.174    	-0.127    
2.378    	4.176    	0.003    
2.448    	4.176    	0.003    
2.520    	4.176    	0.003    
2.594    	4.176    	0.003    
2.670    	4.178    	0.184    
2.748    	4.178    	0.184    
2.828    	4.178    	0.184    
2.911    	4.178    	0.184    
2.997    	4.177    	0.400    
3.084    	4.177    	0.400    
3.175    	4.177    	0.400    
3.268    	4.177    	0.400    
3.364    	4.180    	0.585    
3.462    	4.180    	0.585    
3.564    	4.180    	0.585    
3.668    	4.176    	0.760    
3.775    	4.176    	0.760    
3.886    	4.176    	0.760    
4.000    	4.176    	0.902    
4.117    	4.176    	0.902    
4.238    	4.176    	0.902    
4.362    	4.171    	1.038    
4.490    	4.171    	1.038    
4.621    	4.171    	1.038    
4.757    	4.172    	1.149    
4.896    	4.172    	1.149    
5.040    	4.175    	1.246    
5.187    	4.175    	1.246    
5.339    	4.180    	1.329    
5.496    	4.180    	1.329    
5.657    	4.182    	1.400    
5.823    	4.182    	1.400    
5.993    	4.182    	1.480    
6.169    	4.182    	1.480    
6.350    	4.181    	1.558    
6.536    	4.181    	1.558    
6.727    	4.180    	1.620    
6.924    	4.180    	1.620    
7.127    	4.179    	1.677    
7.336    	4.179    	1.743    
7.551    	4.179    	1.743    
7.772    	4.179    	1.811    
8.000    	4.179    	1.880    
8.234    	4.179    	1.880    
8.476    	4.178    	1.953    
8.724    	4.179    	2.030    
8.980    	4.179    	2.099    
9.243    	4.179    	2.099    
9.514    	4.179    	2.162    
9.792    	4.179    	2.230    
10.079    	4.179    	2.298    
10.375    	4.178    	2.359    
10.679    	4.178    	2.417    
10.992    	4.178    	2.481    
11.314    	4.179    	2.545    
11.645    	4.179    	2.603    
11.986    	4.180    	2.656    
12.338    	4.181    	2.714    
12.699    	4.183    	2.769    
13.071    	4.185    	2.818    
13.454    	4.187    	2.868    
13.849    	4.188    	2.928    
14.254    	4.190    	2.995    
14.672    	4.193    	3.092    
15.102    	4.195    	3.199    
15.545    	4.197    	3.278    
16.000    	4.200    	3.407    
16.469    	4.203    	3.550    
16.951    	4.206    	3.685    
17.448    	4.208    	3.808    
17.959    	4.210    	3.930    
18.486    	4.212    	4.046    
19.027    	4.213    	4.159    
19.585    	4.214    	4.317    
20.159    	4.215    	4.408    
20.749    	4.217    	4.520    
21.357    	4.218    	4.669    
21.983    	4.219    	4.816    
22.627    	4.220    	4.965    
23.290    	4.221    	5.107    
23.973    	4.223    	5.239    
24.675    	4.225    	5.367    
25.398    	4.228    	5.488    
26.143    	4.231    	5.610    
26.909    	4.235    	5.775    
27.697    	4.239    	5.943    
28.509    	4.243    	6.083    
29.344    	4.248    	6.268    
30.204    	4.254    	6.488    
31.089    	4.258    	6.680    
32.000    	4.263    	6.878    
32.938    	4.269    	7.126    
33.903    	4.274    	7.380    
34.896    	4.279    	7.632    
35.919    	4.283    	7.882    
36.971    	4.287    	8.121    
38.055    	4.290    	8.337    
39.170    	4.296    	8.579    
40.317    	4.301    	8.778    
41.499    	4.306    	8.962    
42.715    	4.317    	9.187    
43.967    	4.332    	9.544    
45.255    	4.344    	9.960    
46.581    	4.357    	10.316    
47.946    	4.366    	10.595    
49.351    	4.381    	11.036    
50.797    	4.389    	11.430    
52.285    	4.398    	11.739    
53.817    	4.415    	12.092    
55.394    	4.432    	12.506    
57.018    	4.448    	12.893    
58.688    	4.468    	13.279    
60.408    	4.489    	13.792    
62.178    	4.511    	14.368    
64.000    	4.534    	14.888    
65.875    	4.556    	15.421    
67.806    	4.582    	15.897    
69.792    	4.619    	16.406    
71.838    	4.660    	17.079    
73.943    	4.699    	17.777    
76.109    	4.742    	18.440    
78.339    	4.798    	19.283    
80.635    	4.858    	20.032    
82.998    	4.914    	20.741    
85.430    	4.982    	21.487    
87.933    	5.077    	22.509    
90.510    	5.182    	23.558    
93.162    	5.283    	24.413    
95.892    	5.423    	25.417    
98.701    	5.592    	26.521    
101.594    	5.780    	27.649    
104.571    	6.011    	28.724    
107.635    	6.292    	29.937    
110.789    	6.655    	30.950    
114.035    	7.115    	31.582    
117.377    	7.704    	32.108    
120.816    	8.461    	31.771    
124.356    	9.437    	30.091    
128.000    	10.511    	26.752    
131.751    	11.679    	21.055    
135.611    	12.700    	13.573    
139.585    	13.258    	4.785    
143.675    	13.218    	-5.306    
147.885    	12.450    	-14.346    
152.219    	11.359    	-20.975    
156.679    	10.164    	-25.589    
161.270    	9.139    	-28.455    
165.995    	8.273    	-29.937    
170.860    	7.611    	-30.283    
175.866    	7.023    	-29.868    
181.019    	6.597    	-29.285    
186.324    	6.238    	-28.596    
191.783    	5.924    	-27.569    
197.403    	5.682    	-26.490    
203.187    	5.490    	-25.188    
209.141    	5.318    	-23.693    
215.269    	5.190    	-22.233    
221.577    	5.059    	-20.823    
228.070    	4.963    	-19.535    
234.753    	4.877    	-18.183    
241.632    	4.804    	-17.111    
248.712    	4.730    	-15.931    
256.000    	4.679    	-14.977    
263.501    	4.640    	-13.865    
271.223    	4.591    	-13.044    
279.170    	4.556    	-12.015    
287.350    	4.520    	-11.218    
295.770    	4.506    	-10.284    
304.437    	4.492    	-9.548    
313.358    	4.480    	-8.705    
322.540    	4.466    	-8.092    
331.991    	4.445    	-7.489    
341.719    	4.436    	-6.822    
351.732    	4.418    	-6.166    
362.039    	4.407    	-5.549    
372.647    	4.400    	-4.895    
383.567    	4.396    	-4.315    
394.806    	4.391    	-3.712    
406.375    	4.385    	-3.141    
418.282    	4.378    	-2.611    
430.539    	4.375    	-2.044    
443.155    	4.379    	-1.517    
456.140    	4.379    	-0.982    
469.506    	4.381    	-0.418    
483.264    	4.387    	0.123    
497.424    	4.387    	0.627    
512.000    	4.395    	1.140    
527.003    	4.407    	1.599    
542.445    	4.420    	1.998    
558.340    	4.432    	2.367    
574.701    	4.442    	2.716    
591.541    	4.446    	3.005    
608.874    	4.442    	3.329    
626.715    	4.439    	3.760    
645.080    	4.440    	4.232    
663.982    	4.446    	4.700    
683.438    	4.455    	5.217    
703.464    	4.469    	5.693    
724.077    	4.491    	6.077    
745.294    	4.509    	6.392    
767.133    	4.516    	6.660    
789.612    	4.517    	7.049    
812.749    	4.525    	7.451    
836.565    	4.533    	7.830    
861.078    	4.542    	8.240    
886.309    	4.550    	8.651    
912.280    	4.559    	9.073    
939.012    	4.571    	9.501    
966.527    	4.583    	9.961    
994.849    	4.594    	10.482    
1024.000    	4.609    	10.863    
1054.005    	4.624    	11.295    
1084.890    	4.640    	11.750    
1116.680    	4.657    	12.175    
1149.401    	4.674    	12.643    
1183.081    	4.691    	13.115    
1217.748    	4.712    	13.564    
1253.431    	4.731    	14.044    
1290.159    	4.754    	14.536    
1327.964    	4.779    	15.007    
1366.876    	4.807    	15.488    
1406.929    	4.835    	15.955    
1448.155    	4.859    	16.351    
1490.589    	4.884    	16.782    
1534.266    	4.910    	17.250    
1579.224    	4.938    	17.739    
1625.499    	4.969    	18.210    
1673.129    	4.998    	18.680    
1722.156    	5.031    	19.192    
1772.619    	5.066    	19.653    
1824.561    	5.104    	20.134    
1878.024    	5.141    	20.624    
1933.055    	5.178    	21.073    
1989.697    	5.222    	21.597    
2048.000    	5.262    	22.025    
2108.011    	5.305    	22.469    
2169.780    	5.349    	22.951    
2233.360    	5.396    	23.447    
2298.802    	5.445    	23.929    
2366.162    	5.496    	24.384    
2435.496    	5.548    	24.861    
2506.862    	5.607    	25.348    
2580.318    	5.677    	25.733    
2655.927    	5.746    	25.998    
2733.752    	5.797    	26.147    
2813.857    	5.834    	26.504    
2896.309    	5.883    	26.926    
2981.178    	5.943    	27.342    
3068.533    	6.006    	27.623    
3158.448    	6.060    	27.775    
3250.997    	6.086    	28.012    
3346.259    	6.105    	28.551    
3444.312    	6.151    	29.190    
3545.238    	6.211    	29.792    
3649.121    	6.275    	30.349    
3756.049    	6.343    	30.918    
3866.109    	6.417    	31.447    
3979.395    	6.491    	31.974    
4096.000    	6.566    	32.469    
4216.022    	6.646    	32.964    
4339.561    	6.727    	33.428    
4466.720    	6.810    	33.935    
4597.605    	6.896    	34.401    
4732.325    	6.987    	34.888    
4870.992    	7.077    	35.343    
5013.723    	7.171    	35.795    
5160.637    	7.269    	36.246    
5311.855    	7.371    	36.683    
5467.504    	7.472    	37.132    
5627.714    	7.574    	37.554    
5792.619    	7.683    	37.986    
5962.355    	7.795    	38.420    
6137.066    	7.904    	38.813    
6316.896    	8.021    	39.205    
6501.995    	8.141    	39.618    
6692.518    	8.262    	40.026    
6888.623    	8.387    	40.421    
7090.476    	8.514    	40.814    
7298.242    	8.647    	41.197    
7512.097    	8.785    	41.597    
7732.218    	8.929    	41.987    
7958.790    	9.075    	42.329    
8192.000    	9.229    	42.645    
8432.044    	9.383    	42.910    
8679.122    	9.521    	43.156    
8933.439    	9.661    	43.501    
9195.209    	9.813    	43.879    
9464.649    	9.976    	44.227    
9741.985    	10.143    	44.555    
10027.447    	10.308    	44.877    
10321.273    	10.480    	45.211    
10623.710    	10.659    	45.533    
10935.008    	10.847    	45.858    
11255.428    	11.047    	46.134    
11585.238    	11.244    	46.343    
11924.711    	11.433    	46.575    
12274.132    	11.630    	46.845    
12633.791    	11.840    	47.088    
13003.989    	12.047    	47.250    
13385.035    	12.243    	47.428    
13777.247    	12.440    	47.654    
14180.951    	12.646    	47.904    
14596.485    	12.867    	48.139    
15024.194    	13.091    	48.371    
15464.437    	13.320    	48.551    
15917.579    	13.536    	48.767    
16384.000    	13.769    	49.029    
16864.088    	14.012    	49.290    
17358.243    	14.260    	49.499    
17866.879    	14.508    	49.637    
18390.418    	14.732    	49.723    
18929.299    	14.933    	49.870    
19483.969    	15.135    	50.050    
20054.893    	15.327    	50.220    
20642.546    	15.468    	50.370    
