* This data was exported from the Dayton Audio Test System: DATS
*
* Piston Diameter = 88 mm
* f(s)= 100.4 Hz
* R(e)= 3.763 Ohms
* Z(max)= 10.36 Ohms
* Q(ms)= 4.283
* Q(es)= 2.442
* Q(ts)= 1.555
* V(as)= 2.17 liters     (0.07664 cubic feet)
* L(e)= 0.4247 mH
* n(0)= 0.08575 %
* SPL= 81.43 1W/1m
* M(ms)= 6.016 grams
* C(ms)= 0.418 mm/N
* BL= 2.418 
* K(r)= 0.09406 
* X(r)= 0.443 
* K(i)= 0.02899 
* X(i)= 0.537 
*
*
Freq            Impedance       Phase
1.029    	3.751    	0.971    
1.059    	3.751    	0.971    
1.091    	3.751    	0.971    
1.122    	3.751    	0.971    
1.155    	3.751    	0.971    
1.189    	3.751    	0.971    
1.224    	3.751    	0.971    
1.260    	3.751    	0.971    
1.297    	3.751    	0.971    
1.335    	3.747    	0.926    
1.374    	3.747    	0.926    
1.414    	3.747    	0.926    
1.456    	3.747    	0.926    
1.498    	3.747    	0.926    
1.542    	3.747    	0.926    
1.587    	3.747    	0.926    
1.634    	3.747    	0.926    
1.682    	3.746    	0.917    
1.731    	3.746    	0.917    
1.782    	3.746    	0.917    
1.834    	3.746    	0.917    
1.888    	3.746    	0.917    
1.943    	3.746    	0.917    
2.000    	3.753    	0.895    
2.059    	3.753    	0.895    
2.119    	3.753    	0.895    
2.181    	3.753    	0.895    
2.245    	3.753    	0.895    
2.311    	3.753    	0.895    
2.378    	3.758    	0.897    
2.448    	3.758    	0.897    
2.520    	3.758    	0.897    
2.594    	3.758    	0.897    
2.670    	3.764    	0.903    
2.748    	3.764    	0.903    
2.828    	3.764    	0.903    
2.911    	3.764    	0.903    
2.997    	3.764    	1.008    
3.084    	3.764    	1.008    
3.175    	3.764    	1.008    
3.268    	3.764    	1.008    
3.364    	3.769    	1.128    
3.462    	3.769    	1.128    
3.564    	3.769    	1.128    
3.668    	3.768    	1.286    
3.775    	3.768    	1.286    
3.886    	3.768    	1.286    
4.000    	3.772    	1.443    
4.117    	3.772    	1.443    
4.238    	3.772    	1.443    
4.362    	3.771    	1.580    
4.490    	3.771    	1.580    
4.621    	3.771    	1.580    
4.757    	3.775    	1.730    
4.896    	3.775    	1.730    
5.040    	3.774    	1.864    
5.187    	3.774    	1.864    
5.339    	3.774    	1.973    
5.496    	3.774    	1.973    
5.657    	3.771    	2.054    
5.823    	3.771    	2.054    
5.993    	3.769    	2.109    
6.169    	3.769    	2.109    
6.350    	3.770    	2.178    
6.536    	3.770    	2.178    
6.727    	3.774    	2.263    
6.924    	3.774    	2.263    
7.127    	3.780    	2.363    
7.336    	3.785    	2.482    
7.551    	3.785    	2.482    
7.772    	3.786    	2.599    
8.000    	3.784    	2.716    
8.234    	3.784    	2.716    
8.476    	3.781    	2.831    
8.724    	3.783    	2.939    
8.980    	3.788    	3.047    
9.243    	3.788    	3.047    
9.514    	3.792    	3.148    
9.792    	3.794    	3.240    
10.079    	3.794    	3.348    
10.375    	3.793    	3.470    
10.679    	3.793    	3.595    
10.992    	3.793    	3.709    
11.314    	3.792    	3.813    
11.645    	3.794    	3.928    
11.986    	3.798    	4.054    
12.338    	3.805    	4.169    
12.699    	3.812    	4.268    
13.071    	3.816    	4.358    
13.454    	3.816    	4.450    
13.849    	3.815    	4.554    
14.254    	3.815    	4.660    
14.672    	3.817    	4.812    
15.102    	3.821    	4.977    
15.545    	3.823    	5.108    
16.000    	3.823    	5.313    
16.469    	3.824    	5.503    
16.951    	3.832    	5.685    
17.448    	3.838    	5.839    
17.959    	3.841    	5.967    
18.486    	3.844    	6.107    
19.027    	3.846    	6.242    
19.585    	3.846    	6.440    
20.159    	3.849    	6.618    
20.749    	3.853    	6.786    
21.357    	3.858    	7.009    
21.983    	3.863    	7.220    
22.627    	3.869    	7.414    
23.290    	3.876    	7.591    
23.973    	3.881    	7.761    
24.675    	3.888    	7.950    
25.398    	3.893    	8.162    
26.143    	3.901    	8.394    
26.909    	3.908    	8.695    
27.697    	3.915    	8.986    
28.509    	3.924    	9.207    
29.344    	3.933    	9.488    
30.204    	3.944    	9.804    
31.089    	3.952    	10.070    
32.000    	3.959    	10.363    
32.938    	3.967    	10.685    
33.903    	3.978    	11.026    
34.896    	3.988    	11.372    
35.919    	4.000    	11.705    
36.971    	4.015    	12.017    
38.055    	4.028    	12.327    
39.170    	4.042    	12.707    
40.317    	4.063    	13.093    
41.499    	4.084    	13.477    
42.715    	4.101    	13.846    
43.967    	4.122    	14.353    
45.255    	4.146    	14.896    
46.581    	4.167    	15.396    
47.946    	4.186    	15.900    
49.351    	4.216    	16.304    
50.797    	4.245    	16.815    
52.285    	4.279    	17.433    
53.817    	4.324    	18.012    
55.394    	4.376    	18.714    
57.018    	4.421    	19.315    
58.688    	4.473    	20.027    
60.408    	4.531    	20.829    
62.178    	4.593    	21.577    
64.000    	4.663    	22.293    
65.875    	4.749    	23.098    
67.806    	4.859    	23.916    
69.792    	4.994    	24.748    
71.838    	5.141    	25.672    
73.943    	5.293    	26.748    
76.109    	5.485    	27.833    
78.339    	5.750    	28.817    
80.635    	6.112    	29.444    
82.998    	6.575    	29.590    
85.430    	7.124    	29.106    
87.933    	7.777    	27.588    
90.510    	8.448    	24.925    
93.162    	9.098    	20.747    
95.892    	9.781    	14.265    
98.701    	10.255    	6.660    
101.594    	10.278    	-1.214    
104.571    	9.736    	-8.995    
107.635    	8.877    	-15.095    
110.789    	7.986    	-19.104    
114.035    	7.268    	-21.024    
117.377    	6.714    	-21.327    
120.816    	6.196    	-20.904    
124.356    	5.776    	-20.565    
128.000    	5.501    	-19.934    
131.751    	5.261    	-18.698    
135.611    	5.029    	-17.279    
139.585    	4.855    	-16.053    
143.675    	4.748    	-14.747    
147.885    	4.665    	-13.151    
152.219    	4.552    	-12.050    
156.679    	4.481    	-10.908    
161.270    	4.438    	-9.259    
165.995    	4.389    	-8.007    
170.860    	4.362    	-7.187    
175.866    	4.337    	-5.911    
181.019    	4.286    	-4.848    
186.324    	4.279    	-3.962    
191.783    	4.256    	-2.669    
197.403    	4.218    	-2.153    
203.187    	4.250    	-1.100    
209.141    	4.217    	0.106    
215.269    	4.227    	0.510    
221.577    	4.248    	1.901    
228.070    	4.218    	2.351    
234.753    	4.263    	3.079    
241.632    	4.247    	3.941    
248.712    	4.277    	4.440    
256.000    	4.275    	5.287    
263.501    	4.296    	5.804    
271.223    	4.302    	6.498    
279.170    	4.324    	7.141    
287.350    	4.336    	7.706    
295.770    	4.361    	8.321    
304.437    	4.378    	8.862    
313.358    	4.395    	9.423    
322.540    	4.421    	10.024    
331.991    	4.445    	10.538    
341.719    	4.466    	11.062    
351.732    	4.490    	11.568    
362.039    	4.514    	12.086    
372.647    	4.539    	12.621    
383.567    	4.567    	13.081    
394.806    	4.598    	13.566    
406.375    	4.626    	14.090    
418.282    	4.655    	14.519    
430.539    	4.682    	14.977    
443.155    	4.717    	15.444    
456.140    	4.748    	15.853    
469.506    	4.780    	16.324    
483.264    	4.816    	16.778    
497.424    	4.846    	17.184    
512.000    	4.882    	17.649    
527.003    	4.921    	18.049    
542.445    	4.961    	18.475    
558.340    	4.997    	18.903    
574.701    	5.036    	19.309    
591.541    	5.079    	19.716    
608.874    	5.118    	20.140    
626.715    	5.161    	20.543    
645.080    	5.208    	20.901    
663.982    	5.252    	21.273    
683.438    	5.297    	21.660    
703.464    	5.342    	22.045    
724.077    	5.392    	22.417    
745.294    	5.442    	22.774    
767.133    	5.499    	23.124    
789.612    	5.549    	23.404    
812.749    	5.591    	23.703    
836.565    	5.636    	24.080    
861.078    	5.688    	24.502    
886.309    	5.742    	24.861    
912.280    	5.797    	25.265    
939.012    	5.858    	25.608    
966.527    	5.915    	25.970    
994.849    	5.975    	26.369    
1024.000    	6.036    	26.683    
1054.005    	6.099    	27.007    
1084.890    	6.170    	27.371    
1116.680    	6.233    	27.655    
1149.401    	6.301    	27.993    
1183.081    	6.372    	28.339    
1217.748    	6.447    	28.674    
1253.431    	6.519    	28.990    
1290.159    	6.595    	29.329    
1327.964    	6.675    	29.587    
1366.876    	6.758    	29.872    
1406.929    	6.841    	30.171    
1448.155    	6.926    	30.374    
1490.589    	7.013    	30.595    
1534.266    	7.101    	30.790    
1579.224    	7.187    	30.977    
1625.499    	7.268    	31.115    
1673.129    	7.349    	31.275    
1722.156    	7.426    	31.480    
1772.619    	7.504    	31.691    
1824.561    	7.591    	31.943    
1878.024    	7.677    	32.130    
1933.055    	7.754    	32.280    
1989.697    	7.830    	32.573    
2048.000    	7.911    	32.848    
2108.011    	8.005    	33.128    
2169.780    	8.093    	33.413    
2233.360    	8.190    	33.751    
2298.802    	8.293    	34.038    
2366.162    	8.400    	34.314    
2435.496    	8.504    	34.572    
2506.862    	8.616    	34.850    
2580.318    	8.730    	35.060    
2655.927    	8.849    	35.300    
2733.752    	8.963    	35.525    
2813.857    	9.088    	35.752    
2896.309    	9.208    	35.967    
2981.178    	9.331    	36.197    
3068.533    	9.460    	36.382    
3158.448    	9.589    	36.555    
3250.997    	9.720    	36.742    
3346.259    	9.854    	36.927    
3444.312    	9.989    	37.111    
3545.238    	10.129    	37.277    
3649.121    	10.270    	37.457    
3756.049    	10.415    	37.625    
3866.109    	10.564    	37.797    
3979.395    	10.710    	37.935    
4096.000    	10.864    	38.067    
4216.022    	11.021    	38.165    
4339.561    	11.180    	38.255    
4466.720    	11.325    	38.316    
4597.605    	11.470    	38.402    
4732.325    	11.613    	38.550    
4870.992    	11.765    	38.715    
5013.723    	11.924    	38.874    
5160.637    	12.095    	39.029    
5311.855    	12.266    	39.159    
5467.504    	12.440    	39.284    
5627.714    	12.618    	39.405    
5792.619    	12.799    	39.516    
5962.355    	12.983    	39.625    
6137.066    	13.167    	39.681    
6316.896    	13.349    	39.731    
6501.995    	13.532    	39.803    
6692.518    	13.712    	39.895    
6888.623    	13.903    	40.002    
7090.476    	14.099    	40.081    
7298.242    	14.294    	40.146    
7512.097    	14.487    	40.231    
7732.218    	14.690    	40.316    
7958.790    	14.895    	40.373    
8192.000    	15.101    	40.440    
8432.044    	15.312    	40.511    
8679.122    	15.522    	40.568    
8933.439    	15.732    	40.626    
9195.209    	15.950    	40.700    
9464.649    	16.166    	40.748    
9741.985    	16.388    	40.818    
10027.447    	16.610    	40.888    
10321.273    	16.838    	40.948    
10623.710    	17.068    	40.992    
10935.008    	17.301    	41.034    
11255.428    	17.529    	41.079    
11585.238    	17.763    	41.143    
11924.711    	18.002    	41.200    
12274.132    	18.245    	41.257    
12633.791    	18.492    	41.310    
13003.989    	18.732    	41.353    
13385.035    	18.982    	41.407    
13777.247    	19.232    	41.451    
14180.951    	19.482    	41.515    
14596.485    	19.738    	41.574    
15024.194    	19.994    	41.639    
15464.437    	20.263    	41.702    
15917.579    	20.516    	41.764    
16384.000    	20.783    	41.833    
16864.088    	21.053    	41.904    
17358.243    	21.310    	41.980    
17866.879    	21.559    	42.083    
18390.418    	21.797    	42.207    
18929.299    	22.024    	42.362    
19483.969    	22.246    	42.475    
20054.893    	22.453    	42.677    
20642.546    	22.632    	42.973    
