* This data was exported from the Dayton Audio Test System: DATS
*
* Piston Diameter = 78 mm
* f(s)= 155 Hz
* R(e)= 10.13 Ohms
* Z(max)= 43.12 Ohms
* Q(ms)= 3.362
* Q(es)= 1.032
* Q(ts)= 0.7897
* V(as)= 1.048 liters     (0.037 cubic feet)
* L(e)= 1.59 mH
* n(0)= 0.3605 %
* SPL= 87.67 1W/1m
* M(ms)= 3.227 grams
* C(ms)= 0.327 mm/N
* BL= 5.553 
* K(r)= 0.04801 
* X(r)= 0.6177 
* K(i)= 0.08064 
* X(i)= 0.5953 
*
*
Freq            Impedance       Phase
1.029    	10.123    	1.192    
1.059    	10.123    	1.192    
1.091    	10.123    	1.192    
1.122    	10.123    	1.192    
1.155    	10.123    	1.192    
1.189    	10.123    	1.192    
1.224    	10.123    	1.192    
1.260    	10.123    	1.192    
1.297    	10.123    	1.192    
1.335    	10.126    	1.200    
1.374    	10.126    	1.200    
1.414    	10.126    	1.200    
1.456    	10.126    	1.200    
1.498    	10.126    	1.200    
1.542    	10.126    	1.200    
1.587    	10.126    	1.200    
1.634    	10.126    	1.200    
1.682    	10.117    	1.244    
1.731    	10.117    	1.244    
1.782    	10.117    	1.244    
1.834    	10.117    	1.244    
1.888    	10.117    	1.244    
1.943    	10.117    	1.244    
2.000    	10.119    	1.316    
2.059    	10.119    	1.316    
2.119    	10.119    	1.316    
2.181    	10.119    	1.316    
2.245    	10.119    	1.316    
2.311    	10.119    	1.316    
2.378    	10.112    	1.394    
2.448    	10.112    	1.394    
2.520    	10.112    	1.394    
2.594    	10.112    	1.394    
2.670    	10.114    	1.507    
2.748    	10.114    	1.507    
2.828    	10.114    	1.507    
2.911    	10.114    	1.507    
2.997    	10.114    	1.643    
3.084    	10.114    	1.643    
3.175    	10.114    	1.643    
3.268    	10.114    	1.643    
3.364    	10.121    	1.825    
3.462    	10.121    	1.825    
3.564    	10.121    	1.825    
3.668    	10.133    	2.019    
3.775    	10.133    	2.019    
3.886    	10.133    	2.019    
4.000    	10.141    	2.205    
4.117    	10.141    	2.205    
4.238    	10.141    	2.205    
4.362    	10.141    	2.388    
4.490    	10.141    	2.388    
4.621    	10.141    	2.388    
4.757    	10.148    	2.559    
4.896    	10.148    	2.559    
5.040    	10.152    	2.724    
5.187    	10.152    	2.724    
5.339    	10.156    	2.883    
5.496    	10.156    	2.883    
5.657    	10.155    	3.030    
5.823    	10.155    	3.030    
5.993    	10.156    	3.173    
6.169    	10.156    	3.173    
6.350    	10.162    	3.316    
6.536    	10.162    	3.316    
6.727    	10.168    	3.468    
6.924    	10.168    	3.468    
7.127    	10.181    	3.631    
7.336    	10.191    	3.795    
7.551    	10.191    	3.795    
7.772    	10.194    	3.955    
8.000    	10.198    	4.111    
8.234    	10.198    	4.111    
8.476    	10.204    	4.268    
8.724    	10.207    	4.432    
8.980    	10.209    	4.595    
9.243    	10.209    	4.595    
9.514    	10.215    	4.753    
9.792    	10.229    	4.915    
10.079    	10.242    	5.084    
10.375    	10.247    	5.255    
10.679    	10.252    	5.421    
10.992    	10.258    	5.579    
11.314    	10.264    	5.732    
11.645    	10.272    	5.885    
11.986    	10.281    	6.037    
12.338    	10.286    	6.188    
12.699    	10.289    	6.336    
13.071    	10.294    	6.486    
13.454    	10.301    	6.639    
13.849    	10.308    	6.793    
14.254    	10.315    	6.944    
14.672    	10.332    	7.167    
15.102    	10.350    	7.391    
15.545    	10.359    	7.541    
16.000    	10.370    	7.763    
16.469    	10.381    	7.986    
16.951    	10.400    	8.212    
17.448    	10.415    	8.441    
17.959    	10.423    	8.673    
18.486    	10.439    	8.907    
19.027    	10.458    	9.137    
19.585    	10.477    	9.435    
20.159    	10.489    	9.654    
20.749    	10.501    	9.867    
21.357    	10.522    	10.150    
21.983    	10.544    	10.429    
22.627    	10.561    	10.710    
23.290    	10.583    	10.991    
23.973    	10.606    	11.266    
24.675    	10.629    	11.545    
25.398    	10.650    	11.830    
26.143    	10.682    	12.117    
26.909    	10.716    	12.478    
27.697    	10.739    	12.847    
28.509    	10.766    	13.136    
29.344    	10.798    	13.489    
30.204    	10.827    	13.889    
31.089    	10.860    	14.213    
32.000    	10.896    	14.550    
32.938    	10.938    	14.912    
33.903    	10.985    	15.311    
34.896    	11.036    	15.729    
35.919    	11.080    	16.156    
36.971    	11.123    	16.575    
38.055    	11.167    	16.978    
39.170    	11.219    	17.435    
40.317    	11.277    	17.876    
41.499    	11.333    	18.281    
42.715    	11.399    	18.671    
43.967    	11.462    	19.163    
45.255    	11.536    	19.708    
46.581    	11.615    	20.244    
47.946    	11.682    	20.774    
49.351    	11.753    	21.162    
50.797    	11.849    	21.690    
52.285    	11.955    	22.312    
53.817    	12.061    	22.907    
55.394    	12.164    	23.571    
57.018    	12.256    	24.080    
58.688    	12.361    	24.599    
60.408    	12.504    	25.180    
62.178    	12.661    	25.833    
64.000    	12.805    	26.492    
65.875    	12.947    	27.158    
67.806    	13.113    	27.797    
69.792    	13.307    	28.429    
71.838    	13.513    	29.149    
73.943    	13.710    	29.862    
76.109    	13.929    	30.513    
78.339    	14.208    	31.229    
80.635    	14.508    	31.997    
82.998    	14.802    	32.800    
85.430    	15.097    	33.444    
87.933    	15.488    	34.091    
90.510    	15.898    	34.870    
93.162    	16.302    	35.555    
95.892    	16.839    	36.203    
98.701    	17.436    	36.894    
101.594    	18.028    	37.525    
104.571    	18.739    	37.979    
107.635    	19.583    	38.483    
110.789    	20.502    	38.939    
114.035    	21.569    	39.047    
117.377    	22.807    	39.113    
120.816    	24.283    	38.814    
124.356    	26.049    	38.063    
128.000    	28.001    	36.980    
131.751    	30.356    	34.862    
135.611    	33.001    	32.130    
139.585    	35.674    	28.311    
143.675    	38.621    	23.070    
147.885    	40.957    	16.696    
152.219    	42.661    	9.479    
156.679    	43.005    	1.431    
161.270    	42.120    	-6.876    
165.995    	39.992    	-13.975    
170.860    	37.280    	-20.155    
175.866    	34.132    	-25.117    
181.019    	31.269    	-28.662    
186.324    	28.506    	-31.260    
191.783    	25.990    	-32.839    
197.403    	23.837    	-33.696    
203.187    	21.983    	-33.852    
209.141    	20.437    	-33.430    
215.269    	19.053    	-32.606    
221.577    	17.880    	-31.435    
228.070    	16.920    	-29.905    
234.753    	16.121    	-28.421    
241.632    	15.403    	-26.667    
248.712    	14.753    	-24.946    
256.000    	14.220    	-22.902    
263.501    	13.733    	-21.009    
271.223    	13.365    	-18.807    
279.170    	13.027    	-16.957    
287.350    	12.769    	-14.617    
295.770    	12.568    	-12.834    
304.437    	12.370    	-10.581    
313.358    	12.311    	-8.809    
322.540    	12.156    	-6.920    
331.991    	12.144    	-4.896    
341.719    	12.130    	-3.449    
351.732    	12.070    	-1.819    
362.039    	12.081    	-0.273    
372.647    	12.076    	1.101    
383.567    	12.060    	2.626    
394.806    	12.088    	4.109    
406.375    	12.127    	5.487    
418.282    	12.166    	6.812    
430.539    	12.202    	8.124    
443.155    	12.258    	9.486    
456.140    	12.329    	10.803    
469.506    	12.408    	12.093    
483.264    	12.505    	13.360    
497.424    	12.610    	14.573    
512.000    	12.725    	15.743    
527.003    	12.851    	16.880    
542.445    	12.991    	17.982    
558.340    	13.132    	19.056    
574.701    	13.282    	20.057    
591.541    	13.434    	21.058    
608.874    	13.600    	22.001    
626.715    	13.756    	22.918    
645.080    	13.924    	23.854    
663.982    	14.103    	24.777    
683.438    	14.287    	25.656    
703.464    	14.476    	26.519    
724.077    	14.679    	27.364    
745.294    	14.884    	28.171    
767.133    	15.099    	28.960    
789.612    	15.321    	29.735    
812.749    	15.550    	30.486    
836.565    	15.784    	31.207    
861.078    	16.028    	31.913    
886.309    	16.280    	32.581    
912.280    	16.536    	33.234    
939.012    	16.799    	33.827    
966.527    	17.053    	34.439    
994.849    	17.316    	35.021    
1024.000    	17.575    	35.585    
1054.005    	17.847    	36.133    
1084.890    	18.115    	36.756    
1116.680    	18.397    	37.353    
1149.401    	18.692    	37.962    
1183.081    	18.996    	38.548    
1217.748    	19.316    	39.133    
1253.431    	19.648    	39.696    
1290.159    	19.992    	40.251    
1327.964    	20.354    	40.793    
1366.876    	20.738    	41.323    
1406.929    	21.164    	41.767    
1448.155    	21.540    	41.939    
1490.589    	21.850    	42.384    
1534.266    	22.236    	42.829    
1579.224    	22.606    	43.336    
1625.499    	23.010    	43.802    
1673.129    	23.451    	44.247    
1722.156    	23.900    	44.671    
1772.619    	24.366    	45.032    
1824.561    	24.848    	45.382    
1878.024    	25.332    	45.713    
1933.055    	25.832    	45.987    
1989.697    	26.354    	46.290    
2048.000    	26.911    	46.478    
2108.011    	27.479    	46.490    
2169.780    	27.932    	46.387    
2233.360    	28.263    	46.471    
2298.802    	28.647    	46.797    
2366.162    	29.100    	47.126    
2435.496    	29.558    	47.424    
2506.862    	30.012    	47.767    
2580.318    	30.495    	48.174    
2655.927    	31.060    	48.634    
2733.752    	31.672    	49.008    
2813.857    	32.293    	49.323    
2896.309    	32.937    	49.603    
2981.178    	33.597    	49.861    
3068.533    	34.254    	50.077    
3158.448    	34.926    	50.274    
3250.997    	35.602    	50.488    
3346.259    	36.303    	50.690    
3444.312    	37.021    	50.853    
3545.238    	37.730    	50.984    
3649.121    	38.446    	51.169    
3756.049    	39.192    	51.333    
3866.109    	39.952    	51.483    
3979.395    	40.733    	51.622    
4096.000    	41.522    	51.754    
4216.022    	42.327    	51.868    
4339.561    	43.152    	51.982    
4466.720    	43.987    	52.085    
4597.605    	44.842    	52.175    
4732.325    	45.708    	52.255    
4870.992    	46.588    	52.330    
5013.723    	47.489    	52.409    
5160.637    	48.415    	52.461    
5311.855    	49.363    	52.491    
5467.504    	50.296    	52.464    
5627.714    	51.185    	52.456    
5792.619    	52.092    	52.526    
5962.355    	53.055    	52.606    
6137.066    	54.056    	52.645    
6316.896    	55.068    	52.675    
6501.995    	56.093    	52.702    
6692.518    	57.140    	52.732    
6888.623    	58.204    	52.747    
7090.476    	59.290    	52.755    
7298.242    	60.389    	52.751    
7512.097    	61.504    	52.749    
7732.218    	62.648    	52.733    
7958.790    	63.810    	52.689    
8192.000    	64.932    	52.632    
8432.044    	66.061    	52.623    
8679.122    	67.239    	52.616    
8933.439    	68.444    	52.598    
9195.209    	69.652    	52.575    
9464.649    	70.883    	52.552    
9741.985    	72.126    	52.520    
10027.447    	73.394    	52.483    
10321.273    	74.665    	52.435    
10623.710    	75.943    	52.386    
10935.008    	77.243    	52.357    
11255.428    	78.566    	52.310    
11585.238    	79.903    	52.267    
11924.711    	81.269    	52.220    
12274.132    	82.633    	52.172    
12633.791    	84.029    	52.125    
13003.989    	85.424    	52.071    
13385.035    	86.831    	52.024    
13777.247    	88.241    	51.979    
14180.951    	89.665    	51.933    
14596.485    	91.106    	51.885    
15024.194    	92.561    	51.848    
15464.437    	94.044    	51.803    
15917.579    	95.537    	51.768    
16384.000    	97.053    	51.729    
16864.088    	98.567    	51.680    
17358.243    	99.995    	51.643    
17866.879    	101.355    	51.633    
18390.418    	102.643    	51.641    
18929.299    	103.879    	51.677    
19483.969    	105.045    	51.723    
20054.893    	106.094    	51.797    
20642.546    	106.916    	51.952    
