* This data was exported from the Dayton Audio Test System: DATS
*
* Piston Diameter = 66 mm
* f(s)= 118.9 Hz
* R(e)= 5.205 Ohms
* Z(max)= 19.36 Ohms
* Q(ms)= 6.505
* Q(es)= 2.392
* Q(ts)= 1.749
* V(as)= 1.17 liters     (0.04131 cubic feet)
* L(e)= 0 mH
* n(0)= 0.07837 %
* SPL= 81.04 1W/1m
* M(ms)= 2.518 grams
* C(ms)= 0.712 mm/N
* BL= 2.023 
* K(r)= 2.033 
* X(r)= 0.1144 
* K(i)= 0.003257 
* X(i)= 0.5981 
*
*
Freq            Impedance       Phase
1.029    	5.220    	-0.541    
1.059    	5.220    	-0.541    
1.091    	5.220    	-0.541    
1.122    	5.220    	-0.541    
1.155    	5.220    	-0.541    
1.189    	5.220    	-0.541    
1.224    	5.220    	-0.541    
1.260    	5.220    	-0.541    
1.297    	5.220    	-0.541    
1.335    	5.210    	-0.370    
1.374    	5.210    	-0.370    
1.414    	5.210    	-0.370    
1.456    	5.210    	-0.370    
1.498    	5.210    	-0.370    
1.542    	5.210    	-0.370    
1.587    	5.210    	-0.370    
1.634    	5.210    	-0.370    
1.682    	5.201    	-0.241    
1.731    	5.201    	-0.241    
1.782    	5.201    	-0.241    
1.834    	5.201    	-0.241    
1.888    	5.201    	-0.241    
1.943    	5.201    	-0.241    
2.000    	5.198    	-0.066    
2.059    	5.198    	-0.066    
2.119    	5.198    	-0.066    
2.181    	5.198    	-0.066    
2.245    	5.198    	-0.066    
2.311    	5.198    	-0.066    
2.378    	5.202    	0.107    
2.448    	5.202    	0.107    
2.520    	5.202    	0.107    
2.594    	5.202    	0.107    
2.670    	5.210    	0.307    
2.748    	5.210    	0.307    
2.828    	5.210    	0.307    
2.911    	5.210    	0.307    
2.997    	5.215    	0.451    
3.084    	5.215    	0.451    
3.175    	5.215    	0.451    
3.268    	5.215    	0.451    
3.364    	5.221    	0.598    
3.462    	5.221    	0.598    
3.564    	5.221    	0.598    
3.668    	5.215    	0.724    
3.775    	5.215    	0.724    
3.886    	5.215    	0.724    
4.000    	5.216    	0.844    
4.117    	5.216    	0.844    
4.238    	5.216    	0.844    
4.362    	5.211    	0.971    
4.490    	5.211    	0.971    
4.621    	5.211    	0.971    
4.757    	5.210    	1.090    
4.896    	5.210    	1.090    
5.040    	5.206    	1.194    
5.187    	5.206    	1.194    
5.339    	5.204    	1.275    
5.496    	5.204    	1.275    
5.657    	5.204    	1.335    
5.823    	5.204    	1.335    
5.993    	5.205    	1.397    
6.169    	5.205    	1.397    
6.350    	5.208    	1.462    
6.536    	5.208    	1.462    
6.727    	5.213    	1.528    
6.924    	5.213    	1.528    
7.127    	5.216    	1.603    
7.336    	5.217    	1.680    
7.551    	5.217    	1.680    
7.772    	5.218    	1.755    
8.000    	5.216    	1.828    
8.234    	5.216    	1.828    
8.476    	5.213    	1.894    
8.724    	5.211    	1.955    
8.980    	5.209    	2.024    
9.243    	5.209    	2.024    
9.514    	5.208    	2.096    
9.792    	5.208    	2.170    
10.079    	5.210    	2.247    
10.375    	5.212    	2.328    
10.679    	5.212    	2.410    
10.992    	5.211    	2.480    
11.314    	5.210    	2.535    
11.645    	5.212    	2.591    
11.986    	5.216    	2.647    
12.338    	5.219    	2.699    
12.699    	5.221    	2.748    
13.071    	5.220    	2.799    
13.454    	5.218    	2.856    
13.849    	5.217    	2.920    
14.254    	5.221    	2.985    
14.672    	5.229    	3.083    
15.102    	5.234    	3.181    
15.545    	5.237    	3.255    
16.000    	5.239    	3.375    
16.469    	5.241    	3.485    
16.951    	5.244    	3.591    
17.448    	5.246    	3.703    
17.959    	5.247    	3.821    
18.486    	5.248    	3.947    
19.027    	5.249    	4.078    
19.585    	5.250    	4.259    
20.159    	5.254    	4.388    
20.749    	5.259    	4.490    
21.357    	5.262    	4.617    
21.983    	5.263    	4.730    
22.627    	5.262    	4.858    
23.290    	5.259    	5.011    
23.973    	5.261    	5.168    
24.675    	5.268    	5.328    
25.398    	5.273    	5.471    
26.143    	5.280    	5.610    
26.909    	5.283    	5.777    
27.697    	5.285    	5.941    
28.509    	5.289    	6.073    
29.344    	5.288    	6.277    
30.204    	5.293    	6.538    
31.089    	5.301    	6.745    
32.000    	5.311    	6.929    
32.938    	5.321    	7.129    
33.903    	5.330    	7.359    
34.896    	5.337    	7.615    
35.919    	5.341    	7.894    
36.971    	5.344    	8.178    
38.055    	5.350    	8.442    
39.170    	5.355    	8.703    
40.317    	5.363    	8.939    
41.499    	5.374    	9.177    
42.715    	5.383    	9.412    
43.967    	5.397    	9.794    
45.255    	5.412    	10.235    
46.581    	5.432    	10.638    
47.946    	5.446    	10.989    
49.351    	5.457    	11.347    
50.797    	5.468    	11.736    
52.285    	5.492    	12.264    
53.817    	5.517    	12.816    
55.394    	5.543    	13.296    
57.018    	5.557    	13.662    
58.688    	5.577    	14.105    
60.408    	5.619    	14.809    
62.178    	5.681    	15.569    
64.000    	5.733    	16.087    
65.875    	5.754    	16.585    
67.806    	5.772    	17.269    
69.792    	5.827    	18.195    
71.838    	5.908    	19.196    
73.943    	5.984    	19.997    
76.109    	6.070    	20.735    
78.339    	6.166    	21.789    
80.635    	6.270    	23.280    
82.998    	6.396    	24.861    
85.430    	6.565    	26.104    
87.933    	6.806    	27.318    
90.510    	7.050    	29.024    
93.162    	7.305    	31.055    
95.892    	7.808    	33.882    
98.701    	8.599    	36.584    
101.594    	9.727    	37.882    
104.571    	11.376    	36.866    
107.635    	13.388    	33.697    
110.789    	15.584    	27.207    
114.035    	17.679    	17.439    
117.377    	19.081    	5.396    
120.816    	19.015    	-9.355    
124.356    	17.346    	-22.574    
128.000    	14.556    	-30.862    
131.751    	12.123    	-34.894    
135.611    	10.663    	-35.264    
139.585    	9.557    	-34.901    
143.675    	8.746    	-34.111    
147.885    	8.103    	-32.994    
152.219    	7.668    	-31.939    
156.679    	7.256    	-30.448    
161.270    	6.965    	-29.280    
165.995    	6.717    	-27.839    
170.860    	6.534    	-26.503    
175.866    	6.364    	-25.144    
181.019    	6.236    	-23.818    
186.324    	6.141    	-22.679    
191.783    	6.045    	-21.004    
197.403    	5.945    	-19.946    
203.187    	5.902    	-18.546    
209.141    	5.769    	-17.089    
215.269    	5.732    	-16.877    
221.577    	5.693    	-14.943    
228.070    	5.541    	-15.231    
234.753    	5.720    	-14.249    
241.632    	5.516    	-11.964    
248.712    	5.549    	-13.112    
256.000    	5.528    	-10.631    
263.501    	5.478    	-11.385    
271.223    	5.507    	-9.570    
279.170    	5.452    	-9.699    
287.350    	5.464    	-8.530    
295.770    	5.450    	-8.378    
304.437    	5.444    	-7.598    
313.358    	5.434    	-7.156    
322.540    	5.435    	-6.675    
331.991    	5.429    	-6.105    
341.719    	5.431    	-5.615    
351.732    	5.431    	-5.162    
362.039    	5.436    	-4.696    
372.647    	5.445    	-4.254    
383.567    	5.466    	-3.842    
394.806    	5.484    	-3.539    
406.375    	5.504    	-3.342    
418.282    	5.520    	-3.269    
430.539    	5.524    	-3.322    
443.155    	5.504    	-3.379    
456.140    	5.468    	-3.187    
469.506    	5.443    	-2.812    
483.264    	5.430    	-2.376    
497.424    	5.424    	-2.028    
512.000    	5.419    	-1.624    
527.003    	5.419    	-1.250    
542.445    	5.419    	-0.921    
558.340    	5.424    	-0.608    
574.701    	5.429    	-0.255    
591.541    	5.431    	0.063    
608.874    	5.437    	0.343    
626.715    	5.443    	0.644    
645.080    	5.449    	0.916    
663.982    	5.456    	1.206    
683.438    	5.465    	1.477    
703.464    	5.472    	1.727    
724.077    	5.480    	1.995    
745.294    	5.489    	2.258    
767.133    	5.500    	2.524    
789.612    	5.507    	2.771    
812.749    	5.518    	3.040    
836.565    	5.526    	3.237    
861.078    	5.538    	3.508    
886.309    	5.548    	3.748    
912.280    	5.559    	3.978    
939.012    	5.572    	4.251    
966.527    	5.587    	4.484    
994.849    	5.599    	4.800    
1024.000    	5.609    	4.991    
1054.005    	5.623    	5.234    
1084.890    	5.640    	5.514    
1116.680    	5.665    	5.788    
1149.401    	5.695    	6.004    
1183.081    	5.720    	6.022    
1217.748    	5.721    	6.093    
1253.431    	5.723    	6.372    
1290.159    	5.739    	6.651    
1327.964    	5.759    	6.938    
1366.876    	5.779    	7.218    
1406.929    	5.799    	7.497    
1448.155    	5.825    	7.782    
1490.589    	5.858    	8.070    
1534.266    	5.897    	8.348    
1579.224    	5.944    	8.611    
1625.499    	6.011    	8.758    
1673.129    	6.073    	8.715    
1722.156    	6.130    	8.438    
1772.619    	6.162    	7.990    
1824.561    	6.160    	7.602    
1878.024    	6.137    	7.412    
1933.055    	6.117    	7.460    
1989.697    	6.113    	7.640    
2048.000    	6.115    	7.691    
2108.011    	6.111    	7.726    
2169.780    	6.098    	7.916    
2233.360    	6.099    	8.175    
2298.802    	6.102    	8.426    
2366.162    	6.113    	8.688    
2435.496    	6.119    	8.953    
2506.862    	6.133    	9.225    
2580.318    	6.153    	9.487    
2655.927    	6.172    	9.738    
2733.752    	6.200    	10.036    
2813.857    	6.242    	10.185    
2896.309    	6.246    	10.194    
2981.178    	6.256    	10.498    
3068.533    	6.288    	10.780    
3158.448    	6.331    	10.896    
3250.997    	6.339    	10.866    
3346.259    	6.349    	11.134    
3444.312    	6.372    	11.394    
3545.238    	6.400    	11.588    
3649.121    	6.425    	11.780    
3756.049    	6.451    	11.971    
3866.109    	6.479    	12.178    
3979.395    	6.505    	12.365    
4096.000    	6.533    	12.510    
4216.022    	6.558    	12.697    
4339.561    	6.586    	12.838    
4466.720    	6.611    	13.070    
4597.605    	6.640    	13.246    
4732.325    	6.670    	13.431    
4870.992    	6.702    	13.606    
5013.723    	6.729    	13.768    
5160.637    	6.762    	13.941    
5311.855    	6.795    	14.105    
5467.504    	6.823    	14.305    
5627.714    	6.851    	14.505    
5792.619    	6.885    	14.697    
5962.355    	6.921    	14.911    
6137.066    	6.955    	15.077    
6316.896    	6.998    	15.238    
6501.995    	7.045    	15.357    
6692.518    	7.080    	15.433    
6888.623    	7.114    	15.511    
7090.476    	7.139    	15.575    
7298.242    	7.161    	15.700    
7512.097    	7.186    	15.849    
7732.218    	7.207    	16.039    
7958.790    	7.234    	16.274    
8192.000    	7.270    	16.496    
8432.044    	7.306    	16.695    
8679.122    	7.338    	16.845    
8933.439    	7.372    	17.043    
9195.209    	7.406    	17.249    
9464.649    	7.440    	17.439    
9741.985    	7.477    	17.651    
10027.447    	7.511    	17.842    
10321.273    	7.551    	18.025    
10623.710    	7.588    	18.162    
10935.008    	7.617    	18.265    
11255.428    	7.634    	18.462    
11585.238    	7.665    	18.681    
11924.711    	7.690    	18.974    
12274.132    	7.724    	19.229    
12633.791    	7.747    	19.487    
13003.989    	7.791    	19.798    
13385.035    	7.837    	20.046    
13777.247    	7.873    	20.172    
14180.951    	7.888    	20.399    
14596.485    	7.912    	20.720    
15024.194    	7.940    	21.094    
15464.437    	7.982    	21.501    
15917.579    	8.015    	21.836    
16384.000    	8.055    	22.184    
16864.088    	8.095    	22.554    
17358.243    	8.141    	22.922    
17866.879    	8.186    	23.249    
18390.418    	8.224    	23.598    
18929.299    	8.262    	24.019    
19483.969    	8.308    	24.352    
20054.893    	8.349    	24.775    
20642.546    	8.409    	25.283    
