* This data was exported from the Dayton Audio Test System: DATS
*
* Piston Diameter = 51 mm
* f(s)= 131.1 Hz
* R(e)= 6.988 Ohms
* Z(max)= 29.25 Ohms
* Q(ms)= 2.708
* Q(es)= 0.8501
* Q(ts)= 0.647
* V(as)= 0.5708 liters     (0.02016 cubic feet)
* L(e)= 0 mH
* n(0)= 0.1442 %
* SPL= 83.69 1W/1m
* M(ms)= 1.514 grams
* C(ms)= 0.974 mm/N
* BL= 3.201 
* K(r)= 0.4462 
* X(r)= 0.2799 
* K(i)= 0.001462 
* X(i)= 0.7407 
*
*
Freq            Impedance       Phase
1.029    	7.040    	-0.773    
1.059    	7.040    	-0.773    
1.091    	7.040    	-0.773    
1.122    	7.040    	-0.773    
1.155    	7.040    	-0.773    
1.189    	7.040    	-0.773    
1.224    	7.040    	-0.773    
1.260    	7.040    	-0.773    
1.297    	7.040    	-0.773    
1.335    	7.022    	-0.517    
1.374    	7.022    	-0.517    
1.414    	7.022    	-0.517    
1.456    	7.022    	-0.517    
1.498    	7.022    	-0.517    
1.542    	7.022    	-0.517    
1.587    	7.022    	-0.517    
1.634    	7.022    	-0.517    
1.682    	6.995    	-0.310    
1.731    	6.995    	-0.310    
1.782    	6.995    	-0.310    
1.834    	6.995    	-0.310    
1.888    	6.995    	-0.310    
1.943    	6.995    	-0.310    
2.000    	6.985    	-0.071    
2.059    	6.985    	-0.071    
2.119    	6.985    	-0.071    
2.181    	6.985    	-0.071    
2.245    	6.985    	-0.071    
2.311    	6.985    	-0.071    
2.378    	6.981    	0.227    
2.448    	6.981    	0.227    
2.520    	6.981    	0.227    
2.594    	6.981    	0.227    
2.670    	6.987    	0.613    
2.748    	6.987    	0.613    
2.828    	6.987    	0.613    
2.911    	6.987    	0.613    
2.997    	6.992    	1.005    
3.084    	6.992    	1.005    
3.175    	6.992    	1.005    
3.268    	6.992    	1.005    
3.364    	6.998    	1.377    
3.462    	6.998    	1.377    
3.564    	6.998    	1.377    
3.668    	6.995    	1.680    
3.775    	6.995    	1.680    
3.886    	6.995    	1.680    
4.000    	6.996    	1.975    
4.117    	6.996    	1.975    
4.238    	6.996    	1.975    
4.362    	6.993    	2.247    
4.490    	6.993    	2.247    
4.621    	6.993    	2.247    
4.757    	6.996    	2.498    
4.896    	6.996    	2.498    
5.040    	6.999    	2.734    
5.187    	6.999    	2.734    
5.339    	7.005    	2.936    
5.496    	7.005    	2.936    
5.657    	7.009    	3.117    
5.823    	7.009    	3.117    
5.993    	7.008    	3.293    
6.169    	7.008    	3.293    
6.350    	7.007    	3.463    
6.536    	7.007    	3.463    
6.727    	7.009    	3.639    
6.924    	7.009    	3.639    
7.127    	7.012    	3.828    
7.336    	7.017    	4.025    
7.551    	7.017    	4.025    
7.772    	7.022    	4.219    
8.000    	7.024    	4.403    
8.234    	7.024    	4.403    
8.476    	7.026    	4.575    
8.724    	7.029    	4.738    
8.980    	7.031    	4.891    
9.243    	7.031    	4.891    
9.514    	7.029    	5.032    
9.792    	7.027    	5.166    
10.079    	7.027    	5.304    
10.375    	7.030    	5.450    
10.679    	7.033    	5.597    
10.992    	7.038    	5.737    
11.314    	7.045    	5.882    
11.645    	7.052    	6.032    
11.986    	7.059    	6.175    
12.338    	7.068    	6.303    
12.699    	7.075    	6.430    
13.071    	7.079    	6.566    
13.454    	7.080    	6.708    
13.849    	7.085    	6.847    
14.254    	7.098    	6.991    
14.672    	7.122    	7.237    
15.102    	7.143    	7.506    
15.545    	7.156    	7.695    
16.000    	7.172    	7.990    
16.469    	7.185    	8.291    
16.951    	7.199    	8.595    
17.448    	7.206    	8.893    
17.959    	7.208    	9.178    
18.486    	7.214    	9.456    
19.027    	7.217    	9.719    
19.585    	7.220    	10.047    
20.159    	7.232    	10.266    
20.749    	7.245    	10.471    
21.357    	7.252    	10.768    
21.983    	7.267    	11.035    
22.627    	7.285    	11.310    
23.290    	7.302    	11.582    
23.973    	7.320    	11.878    
24.675    	7.340    	12.216    
25.398    	7.368    	12.562    
26.143    	7.392    	12.894    
26.909    	7.421    	13.290    
27.697    	7.454    	13.674    
28.509    	7.478    	13.991    
29.344    	7.493    	14.395    
30.204    	7.532    	14.892    
31.089    	7.563    	15.288    
32.000    	7.600    	15.756    
32.938    	7.639    	16.252    
33.903    	7.674    	16.739    
34.896    	7.697    	17.203    
35.919    	7.725    	17.672    
36.971    	7.767    	18.108    
38.055    	7.810    	18.512    
39.170    	7.857    	18.961    
40.317    	7.916    	19.394    
41.499    	7.996    	19.854    
42.715    	8.067    	20.375    
43.967    	8.147    	21.080    
45.255    	8.227    	21.878    
46.581    	8.282    	22.580    
47.946    	8.328    	23.172    
49.351    	8.412    	23.634    
50.797    	8.516    	24.218    
52.285    	8.619    	24.823    
53.817    	8.749    	25.470    
55.394    	8.878    	26.216    
57.018    	9.004    	26.814    
58.688    	9.149    	27.532    
60.408    	9.322    	28.370    
62.178    	9.472    	29.256    
64.000    	9.608    	29.984    
65.875    	9.765    	30.509    
67.806    	10.014    	30.901    
69.792    	10.321    	31.512    
71.838    	10.632    	32.547    
73.943    	10.891    	33.470    
76.109    	11.177    	34.137    
78.339    	11.531    	34.656    
80.635    	11.963    	35.098    
82.998    	12.431    	35.468    
85.430    	12.997    	35.786    
87.933    	13.655    	36.441    
90.510    	14.230    	37.071    
93.162    	14.821    	36.795    
95.892    	15.814    	35.994    
98.701    	16.956    	35.558    
101.594    	18.072    	35.037    
104.571    	19.280    	33.686    
107.635    	20.603    	31.792    
110.789    	22.159    	28.553    
114.035    	24.048    	25.070    
117.377    	25.626    	21.805    
120.816    	26.798    	16.412    
124.356    	28.077    	9.893    
128.000    	28.992    	3.626    
131.751    	29.156    	-2.850    
135.611    	28.300    	-9.019    
139.585    	27.238    	-15.883    
143.675    	26.250    	-21.092    
147.885    	24.424    	-24.909    
152.219    	22.749    	-28.883    
156.679    	21.377    	-32.268    
161.270    	20.016    	-33.758    
165.995    	18.445    	-35.772    
170.860    	17.501    	-37.349    
175.866    	16.447    	-37.412    
181.019    	15.371    	-38.024    
186.324    	14.763    	-38.603    
191.783    	13.937    	-37.628    
197.403    	13.255    	-38.090    
203.187    	12.849    	-37.371    
209.141    	12.160    	-36.763    
215.269    	11.838    	-36.777    
221.577    	11.315    	-35.509    
228.070    	10.916    	-35.567    
234.753    	10.645    	-34.060    
241.632    	10.249    	-33.798    
248.712    	10.074    	-32.558    
256.000    	9.717    	-31.955    
263.501    	9.579    	-30.881    
271.223    	9.301    	-30.218    
279.170    	9.175    	-29.178    
287.350    	8.961    	-28.594    
295.770    	8.810    	-27.493    
304.437    	8.662    	-26.812    
313.358    	8.511    	-25.843    
322.540    	8.400    	-24.948    
331.991    	8.283    	-24.131    
341.719    	8.176    	-23.234    
351.732    	8.089    	-22.411    
362.039    	8.005    	-21.635    
372.647    	7.920    	-20.831    
383.567    	7.849    	-20.044    
394.806    	7.782    	-19.244    
406.375    	7.722    	-18.504    
418.282    	7.666    	-17.730    
430.539    	7.616    	-16.992    
443.155    	7.571    	-16.276    
456.140    	7.533    	-15.568    
469.506    	7.499    	-14.874    
483.264    	7.469    	-14.230    
497.424    	7.446    	-13.654    
512.000    	7.410    	-13.080    
527.003    	7.382    	-12.503    
542.445    	7.353    	-11.915    
558.340    	7.328    	-11.358    
574.701    	7.305    	-10.764    
591.541    	7.282    	-10.194    
608.874    	7.259    	-9.658    
626.715    	7.244    	-9.130    
645.080    	7.226    	-8.596    
663.982    	7.210    	-8.033    
683.438    	7.197    	-7.511    
703.464    	7.185    	-6.979    
724.077    	7.178    	-6.482    
745.294    	7.165    	-5.955    
767.133    	7.160    	-5.468    
789.612    	7.150    	-4.960    
812.749    	7.147    	-4.482    
836.565    	7.145    	-3.998    
861.078    	7.143    	-3.514    
886.309    	7.140    	-3.036    
912.280    	7.140    	-2.578    
939.012    	7.143    	-2.103    
966.527    	7.147    	-1.639    
994.849    	7.153    	-1.100    
1024.000    	7.158    	-0.720    
1054.005    	7.165    	-0.273    
1084.890    	7.179    	0.129    
1116.680    	7.186    	0.455    
1149.401    	7.184    	0.862    
1183.081    	7.188    	1.311    
1217.748    	7.196    	1.746    
1253.431    	7.200    	2.180    
1290.159    	7.211    	2.599    
1327.964    	7.224    	3.034    
1366.876    	7.238    	3.429    
1406.929    	7.253    	3.868    
1448.155    	7.265    	4.268    
1490.589    	7.281    	4.680    
1534.266    	7.300    	5.086    
1579.224    	7.318    	5.505    
1625.499    	7.340    	5.922    
1673.129    	7.360    	6.306    
1722.156    	7.377    	6.711    
1772.619    	7.398    	7.104    
1824.561    	7.425    	7.535    
1878.024    	7.448    	7.944    
1933.055    	7.473    	8.331    
1989.697    	7.506    	8.816    
2048.000    	7.532    	9.217    
2108.011    	7.577    	9.635    
2169.780    	7.627    	9.987    
2233.360    	7.683    	10.288    
2298.802    	7.736    	10.368    
2366.162    	7.752    	10.361    
2435.496    	7.739    	10.594    
2506.862    	7.746    	10.966    
2580.318    	7.753    	11.402    
2655.927    	7.774    	11.902    
2733.752    	7.811    	12.362    
2813.857    	7.845    	12.789    
2896.309    	7.887    	13.168    
2981.178    	7.913    	13.540    
3068.533    	7.950    	13.956    
3158.448    	7.988    	14.366    
3250.997    	8.029    	14.793    
3346.259    	8.071    	15.204    
3444.312    	8.119    	15.632    
3545.238    	8.170    	16.065    
3649.121    	8.229    	16.457    
3756.049    	8.295    	16.830    
3866.109    	8.357    	17.083    
3979.395    	8.398    	17.307    
4096.000    	8.429    	17.627    
4216.022    	8.469    	18.066    
4339.561    	8.521    	18.490    
4466.720    	8.575    	18.938    
4597.605    	8.638    	19.349    
4732.325    	8.702    	19.740    
4870.992    	8.769    	20.111    
5013.723    	8.837    	20.496    
5160.637    	8.912    	20.851    
5311.855    	8.980    	21.171    
5467.504    	9.047    	21.501    
5627.714    	9.114    	21.867    
5792.619    	9.186    	22.214    
5962.355    	9.259    	22.610    
6137.066    	9.330    	22.959    
6316.896    	9.412    	23.323    
6501.995    	9.493    	23.692    
6692.518    	9.576    	24.053    
6888.623    	9.664    	24.427    
7090.476    	9.756    	24.759    
7298.242    	9.844    	25.097    
7512.097    	9.937    	25.410    
7732.218    	10.026    	25.749    
7958.790    	10.124    	26.105    
8192.000    	10.227    	26.455    
8432.044    	10.327    	26.791    
8679.122    	10.430    	27.109    
8933.439    	10.543    	27.411    
9195.209    	10.650    	27.721    
9464.649    	10.764    	28.043    
9741.985    	10.881    	28.360    
10027.447    	10.997    	28.634    
10321.273    	11.117    	28.920    
10623.710    	11.236    	29.194    
10935.008    	11.358    	29.460    
11255.428    	11.478    	29.742    
11585.238    	11.607    	30.027    
11924.711    	11.738    	30.329    
12274.132    	11.878    	30.605    
12633.791    	12.018    	30.862    
13003.989    	12.159    	31.111    
13385.035    	12.309    	31.352    
13777.247    	12.454    	31.576    
14180.951    	12.602    	31.804    
14596.485    	12.761    	32.030    
15024.194    	12.914    	32.242    
15464.437    	13.080    	32.429    
15917.579    	13.232    	32.599    
16384.000    	13.390    	32.754    
16864.088    	13.540    	32.940    
17358.243    	13.694    	33.140    
17866.879    	13.858    	33.354    
18390.418    	14.025    	33.512    
18929.299    	14.185    	33.702    
19483.969    	14.356    	33.847    
20054.893    	14.517    	33.932    
20642.546    	14.670    	34.073    
