* This data was exported from the Dayton Audio Test System: DATS
*
* Piston Diameter = 113 mm
* f(s)= 88.72 Hz
* R(e)= 1.969 Ohms
* Z(max)= 11.04 Ohms
* Q(ms)= 8.689
* Q(es)= 1.886
* Q(ts)= 1.55
* V(as)= 3.059 liters     (0.108 cubic feet)
* L(e)= 0.2462 mH
* n(0)= 0.108 %
* SPL= 82.44 1W/1m
* M(ms)= 14.86 grams
* C(ms)= 0.217 mm/N
* BL= 2.941 
* K(r)= 0.08824 
* X(r)= 0.3896 
* K(i)= 0.05244 
* X(i)= 0.453 
*
*
Freq            Impedance       Phase
1.029    	1.948    	1.566    
1.059    	1.948    	1.566    
1.091    	1.948    	1.566    
1.122    	1.948    	1.566    
1.155    	1.948    	1.566    
1.189    	1.948    	1.566    
1.224    	1.948    	1.566    
1.260    	1.948    	1.566    
1.297    	1.948    	1.566    
1.335    	1.942    	1.899    
1.374    	1.942    	1.899    
1.414    	1.942    	1.899    
1.456    	1.942    	1.899    
1.498    	1.942    	1.899    
1.542    	1.942    	1.899    
1.587    	1.942    	1.899    
1.634    	1.942    	1.899    
1.682    	1.940    	2.360    
1.731    	1.940    	2.360    
1.782    	1.940    	2.360    
1.834    	1.940    	2.360    
1.888    	1.940    	2.360    
1.943    	1.940    	2.360    
2.000    	1.940    	2.098    
2.059    	1.940    	2.098    
2.119    	1.940    	2.098    
2.181    	1.940    	2.098    
2.245    	1.940    	2.098    
2.311    	1.940    	2.098    
2.378    	1.941    	0.028    
2.448    	1.941    	0.028    
2.520    	1.941    	0.028    
2.594    	1.941    	0.028    
2.670    	1.940    	-0.806    
2.748    	1.940    	-0.806    
2.828    	1.940    	-0.806    
2.911    	1.940    	-0.806    
2.997    	1.939    	-0.962    
3.084    	1.939    	-0.962    
3.175    	1.939    	-0.962    
3.268    	1.939    	-0.962    
3.364    	1.946    	1.074    
3.462    	1.946    	1.074    
3.564    	1.946    	1.074    
3.668    	1.943    	2.041    
3.775    	1.943    	2.041    
3.886    	1.943    	2.041    
4.000    	1.946    	1.979    
4.117    	1.946    	1.979    
4.238    	1.946    	1.979    
4.362    	1.949    	1.711    
4.490    	1.949    	1.711    
4.621    	1.949    	1.711    
4.757    	1.950    	1.464    
4.896    	1.950    	1.464    
5.040    	1.952    	1.897    
5.187    	1.952    	1.897    
5.339    	1.944    	2.447    
5.496    	1.944    	2.447    
5.657    	1.943    	2.665    
5.823    	1.943    	2.665    
5.993    	1.946    	2.701    
6.169    	1.946    	2.701    
6.350    	1.951    	2.617    
6.536    	1.951    	2.617    
6.727    	1.956    	2.796    
6.924    	1.956    	2.796    
7.127    	1.954    	3.204    
7.336    	1.950    	3.453    
7.551    	1.950    	3.453    
7.772    	1.949    	3.535    
8.000    	1.953    	3.534    
8.234    	1.953    	3.534    
8.476    	1.958    	3.644    
8.724    	1.957    	3.937    
8.980    	1.951    	4.133    
9.243    	1.951    	4.133    
9.514    	1.949    	4.176    
9.792    	1.951    	4.223    
10.079    	1.955    	4.342    
10.375    	1.955    	4.553    
10.679    	1.951    	4.722    
10.992    	1.950    	4.754    
11.314    	1.954    	4.794    
11.645    	1.957    	4.925    
11.986    	1.958    	5.107    
12.338    	1.955    	5.270    
12.699    	1.955    	5.345    
13.071    	1.959    	5.406    
13.454    	1.961    	5.539    
13.849    	1.961    	5.702    
14.254    	1.961    	5.839    
14.672    	1.965    	5.994    
15.102    	1.970    	6.189    
15.545    	1.969    	6.371    
16.000    	1.972    	6.619    
16.469    	1.977    	6.868    
16.951    	1.978    	7.141    
17.448    	1.979    	7.407    
17.959    	1.984    	7.641    
18.486    	1.985    	7.868    
19.027    	1.986    	8.093    
19.585    	1.990    	8.378    
20.159    	1.991    	8.552    
20.749    	1.993    	8.766    
21.357    	1.995    	9.091    
21.983    	1.997    	9.394    
22.627    	2.000    	9.718    
23.290    	2.002    	10.019    
23.973    	2.006    	10.302    
24.675    	2.009    	10.544    
25.398    	2.012    	10.808    
26.143    	2.016    	11.078    
26.909    	2.022    	11.399    
27.697    	2.028    	11.697    
28.509    	2.033    	12.011    
29.344    	2.039    	12.421    
30.204    	2.047    	12.963    
31.089    	2.055    	13.388    
32.000    	2.062    	13.740    
32.938    	2.070    	14.184    
33.903    	2.077    	14.700    
34.896    	2.086    	15.269    
35.919    	2.096    	15.829    
36.971    	2.105    	16.384    
38.055    	2.115    	16.925    
39.170    	2.130    	17.580    
40.317    	2.141    	18.099    
41.499    	2.149    	18.592    
42.715    	2.158    	19.059    
43.967    	2.182    	19.900    
45.255    	2.212    	20.958    
46.581    	2.238    	21.822    
47.946    	2.265    	22.580    
49.351    	2.291    	23.239    
50.797    	2.319    	24.332    
52.285    	2.353    	25.402    
53.817    	2.389    	26.464    
55.394    	2.446    	27.923    
57.018    	2.507    	28.976    
58.688    	2.572    	30.053    
60.408    	2.655    	31.360    
62.178    	2.735    	32.684    
64.000    	2.826    	34.223    
65.875    	2.938    	36.027    
67.806    	3.107    	38.306    
69.792    	3.346    	40.329    
71.838    	3.646    	42.161    
73.943    	4.048    	43.679    
76.109    	4.612    	44.161    
78.339    	5.387    	43.176    
80.635    	6.409    	40.305    
82.998    	7.796    	34.621    
85.430    	9.450    	24.198    
87.933    	10.825    	6.119    
90.510    	10.418    	-15.425    
93.162    	8.489    	-30.708    
95.892    	6.497    	-38.758    
98.701    	5.196    	-40.950    
101.594    	4.394    	-40.552    
104.571    	3.827    	-39.011    
107.635    	3.383    	-36.888    
110.789    	3.091    	-34.619    
114.035    	2.838    	-31.763    
117.377    	2.708    	-29.404    
120.816    	2.571    	-26.934    
124.356    	2.442    	-24.817    
128.000    	2.393    	-22.732    
131.751    	2.309    	-20.796    
135.611    	2.273    	-18.846    
139.585    	2.236    	-17.266    
143.675    	2.208    	-15.795    
147.885    	2.203    	-13.971    
152.219    	2.163    	-12.735    
156.679    	2.150    	-11.592    
161.270    	2.164    	-9.981    
165.995    	2.148    	-7.880    
170.860    	2.112    	-6.614    
175.866    	2.099    	-6.069    
181.019    	2.103    	-5.213    
186.324    	2.104    	-4.095    
191.783    	2.107    	-2.991    
197.403    	2.097    	-1.896    
203.187    	2.093    	-1.303    
209.141    	2.113    	-0.507    
215.269    	2.103    	0.732    
221.577    	2.098    	1.353    
228.070    	2.112    	2.161    
234.753    	2.110    	2.880    
241.632    	2.125    	3.561    
248.712    	2.127    	4.752    
256.000    	2.144    	5.424    
263.501    	2.145    	6.065    
271.223    	2.156    	6.629    
279.170    	2.160    	7.306    
287.350    	2.163    	8.068    
295.770    	2.179    	8.676    
304.437    	2.191    	9.465    
313.358    	2.204    	9.940    
322.540    	2.215    	10.667    
331.991    	2.229    	11.313    
341.719    	2.248    	11.931    
351.732    	2.248    	12.571    
362.039    	2.271    	12.939    
372.647    	2.280    	13.526    
383.567    	2.299    	14.228    
394.806    	2.313    	14.905    
406.375    	2.339    	15.489    
418.282    	2.349    	15.928    
430.539    	2.362    	16.523    
443.155    	2.391    	16.963    
456.140    	2.398    	17.496    
469.506    	2.424    	18.320    
483.264    	2.450    	18.726    
497.424    	2.464    	19.128    
512.000    	2.477    	19.667    
527.003    	2.499    	20.449    
542.445    	2.532    	20.909    
558.340    	2.553    	21.494    
574.701    	2.579    	22.024    
591.541    	2.602    	22.422    
608.874    	2.619    	22.963    
626.715    	2.644    	23.406    
645.080    	2.671    	23.763    
663.982    	2.705    	24.210    
683.438    	2.737    	24.848    
703.464    	2.765    	25.306    
724.077    	2.800    	25.700    
745.294    	2.825    	26.156    
767.133    	2.861    	26.682    
789.612    	2.886    	27.077    
812.749    	2.917    	27.601    
836.565    	2.952    	28.050    
861.078    	2.993    	28.447    
886.309    	3.026    	28.877    
912.280    	3.063    	29.421    
939.012    	3.098    	29.822    
966.527    	3.143    	30.268    
994.849    	3.150    	30.562    
1024.000    	3.210    	30.982    
1054.005    	3.267    	31.405    
1084.890    	3.308    	31.881    
1116.680    	3.350    	32.202    
1149.401    	3.400    	32.534    
1183.081    	3.435    	32.824    
1217.748    	3.484    	33.288    
1253.431    	3.532    	33.669    
1290.159    	3.580    	34.089    
1327.964    	3.636    	34.438    
1366.876    	3.690    	34.718    
1406.929    	3.739    	34.993    
1448.155    	3.791    	35.176    
1490.589    	3.837    	35.404    
1534.266    	3.889    	35.682    
1579.224    	3.946    	36.015    
1625.499    	3.991    	36.379    
1673.129    	4.042    	36.714    
1722.156    	4.101    	37.035    
1772.619    	4.157    	37.411    
1824.561    	4.221    	37.692    
1878.024    	4.286    	38.038    
1933.055    	4.349    	38.319    
1989.697    	4.396    	38.696    
2048.000    	4.474    	38.868    
2108.011    	4.546    	39.107    
2169.780    	4.614    	39.455    
2233.360    	4.685    	39.738    
2298.802    	4.757    	40.009    
2366.162    	4.835    	40.232    
2435.496    	4.906    	40.433    
2506.862    	4.982    	40.658    
2580.318    	5.062    	40.896    
2655.927    	5.139    	41.141    
2733.752    	5.221    	41.363    
2813.857    	5.304    	41.627    
2896.309    	5.391    	41.805    
2981.178    	5.489    	41.928    
3068.533    	5.571    	42.112    
3158.448    	5.653    	42.266    
3250.997    	5.737    	42.488    
3346.259    	5.829    	42.627    
3444.312    	5.924    	42.799    
3545.238    	6.021    	42.931    
3649.121    	6.120    	43.115    
3756.049    	6.215    	43.319    
3866.109    	6.314    	43.414    
3979.395    	6.406    	43.412    
4096.000    	6.510    	43.619    
4216.022    	6.618    	43.751    
4339.561    	6.725    	43.857    
4466.720    	6.828    	44.024    
4597.605    	6.937    	44.085    
4732.325    	7.050    	44.198    
4870.992    	7.158    	44.258    
5013.723    	7.259    	44.294    
5160.637    	7.376    	44.500    
5311.855    	7.496    	44.604    
5467.504    	7.617    	44.663    
5627.714    	7.731    	44.719    
5792.619    	7.842    	44.793    
5962.355    	7.955    	44.920    
6137.066    	8.076    	45.013    
6316.896    	8.198    	45.079    
6501.995    	8.326    	45.201    
6692.518    	8.458    	45.293    
6888.623    	8.588    	45.365    
7090.476    	8.704    	45.465    
7298.242    	8.835    	45.548    
7512.097    	8.970    	45.641    
7732.218    	9.105    	45.747    
7958.790    	9.241    	45.824    
8192.000    	9.380    	45.919    
8432.044    	9.515    	46.005    
8679.122    	9.653    	46.114    
8933.439    	9.803    	46.202    
9195.209    	9.953    	46.279    
9464.649    	10.105    	46.403    
9741.985    	10.252    	46.489    
10027.447    	10.401    	46.585    
10321.273    	10.550    	46.702    
10623.710    	10.703    	46.802    
10935.008    	10.862    	46.952    
11255.428    	11.022    	47.084    
11585.238    	11.186    	47.192    
11924.711    	11.350    	47.295    
12274.132    	11.514    	47.444    
12633.791    	11.687    	47.574    
13003.989    	11.854    	47.691    
13385.035    	12.032    	47.858    
13777.247    	12.205    	47.975    
14180.951    	12.388    	48.147    
14596.485    	12.574    	48.342    
15024.194    	12.758    	48.460    
15464.437    	12.951    	48.615    
15917.579    	13.139    	48.805    
16384.000    	13.338    	48.981    
16864.088    	13.537    	49.171    
17358.243    	13.736    	49.354    
17866.879    	13.944    	49.567    
18390.418    	14.148    	49.771    
18929.299    	14.350    	49.991    
19483.969    	14.553    	50.245    
20054.893    	14.745    	50.482    
20642.546    	14.936    	50.792    
