* This data was exported from the Dayton Audio Test System: DATS
*
* Piston Diameter = 66 mm
* f(s)= 134.4 Hz
* R(e)= 7.346 Ohms
* Z(max)= 30.59 Ohms
* Q(ms)= 7.274
* Q(es)= 2.299
* Q(ts)= 1.747
* V(as)= 1.125 liters     (0.03972 cubic feet)
* L(e)= 0 mH
* n(0)= 0.1132 %
* SPL= 82.64 1W/1m
* M(ms)= 2.05 grams
* C(ms)= 0.684 mm/N
* BL= 2.352 
* K(r)= 3.233 
* X(r)= 0.1085 
* K(i)= 0.01481 
* X(i)= 0.4999 
*
*
Freq            Impedance       Phase
1.029    	7.354    	0.319    
1.059    	7.354    	0.319    
1.091    	7.354    	0.319    
1.122    	7.354    	0.319    
1.155    	7.354    	0.319    
1.189    	7.354    	0.319    
1.224    	7.354    	0.319    
1.260    	7.354    	0.319    
1.297    	7.354    	0.319    
1.335    	7.347    	0.345    
1.374    	7.347    	0.345    
1.414    	7.347    	0.345    
1.456    	7.347    	0.345    
1.498    	7.347    	0.345    
1.542    	7.347    	0.345    
1.587    	7.347    	0.345    
1.634    	7.347    	0.345    
1.682    	7.344    	0.387    
1.731    	7.344    	0.387    
1.782    	7.344    	0.387    
1.834    	7.344    	0.387    
1.888    	7.344    	0.387    
1.943    	7.344    	0.387    
2.000    	7.345    	0.424    
2.059    	7.345    	0.424    
2.119    	7.345    	0.424    
2.181    	7.345    	0.424    
2.245    	7.345    	0.424    
2.311    	7.345    	0.424    
2.378    	7.348    	0.463    
2.448    	7.348    	0.463    
2.520    	7.348    	0.463    
2.594    	7.348    	0.463    
2.670    	7.350    	0.529    
2.748    	7.350    	0.529    
2.828    	7.350    	0.529    
2.911    	7.350    	0.529    
2.997    	7.348    	0.608    
3.084    	7.348    	0.608    
3.175    	7.348    	0.608    
3.268    	7.348    	0.608    
3.364    	7.352    	0.705    
3.462    	7.352    	0.705    
3.564    	7.352    	0.705    
3.668    	7.348    	0.809    
3.775    	7.348    	0.809    
3.886    	7.348    	0.809    
4.000    	7.351    	0.907    
4.117    	7.351    	0.907    
4.238    	7.351    	0.907    
4.362    	7.350    	0.995    
4.490    	7.350    	0.995    
4.621    	7.350    	0.995    
4.757    	7.355    	1.074    
4.896    	7.355    	1.074    
5.040    	7.360    	1.152    
5.187    	7.360    	1.152    
5.339    	7.365    	1.222    
5.496    	7.365    	1.222    
5.657    	7.369    	1.286    
5.823    	7.369    	1.286    
5.993    	7.368    	1.350    
6.169    	7.368    	1.350    
6.350    	7.367    	1.413    
6.536    	7.367    	1.413    
6.727    	7.366    	1.474    
6.924    	7.366    	1.474    
7.127    	7.365    	1.539    
7.336    	7.365    	1.607    
7.551    	7.365    	1.607    
7.772    	7.365    	1.673    
8.000    	7.366    	1.738    
8.234    	7.366    	1.738    
8.476    	7.366    	1.810    
8.724    	7.368    	1.888    
8.980    	7.369    	1.965    
9.243    	7.369    	1.965    
9.514    	7.371    	2.039    
9.792    	7.372    	2.109    
10.079    	7.372    	2.172    
10.375    	7.372    	2.233    
10.679    	7.372    	2.298    
10.992    	7.373    	2.369    
11.314    	7.374    	2.440    
11.645    	7.374    	2.505    
11.986    	7.376    	2.565    
12.338    	7.377    	2.624    
12.699    	7.379    	2.683    
13.071    	7.381    	2.746    
13.454    	7.382    	2.814    
13.849    	7.383    	2.884    
14.254    	7.385    	2.951    
14.672    	7.388    	3.045    
15.102    	7.390    	3.140    
15.545    	7.391    	3.206    
16.000    	7.394    	3.308    
16.469    	7.397    	3.413    
16.951    	7.401    	3.517    
17.448    	7.405    	3.618    
17.959    	7.407    	3.724    
18.486    	7.409    	3.836    
19.027    	7.412    	3.947    
19.585    	7.416    	4.106    
20.159    	7.418    	4.198    
20.749    	7.420    	4.308    
21.357    	7.423    	4.452    
21.983    	7.426    	4.593    
22.627    	7.429    	4.732    
23.290    	7.432    	4.869    
23.973    	7.436    	5.001    
24.675    	7.439    	5.136    
25.398    	7.443    	5.279    
26.143    	7.446    	5.428    
26.909    	7.451    	5.618    
27.697    	7.456    	5.804    
28.509    	7.460    	5.946    
29.344    	7.466    	6.117    
30.204    	7.473    	6.312    
31.089    	7.479    	6.479    
32.000    	7.485    	6.656    
32.938    	7.494    	6.883    
33.903    	7.503    	7.121    
34.896    	7.511    	7.361    
35.919    	7.519    	7.595    
36.971    	7.526    	7.827    
38.055    	7.532    	8.054    
39.170    	7.540    	8.338    
40.317    	7.546    	8.577    
41.499    	7.551    	8.796    
42.715    	7.564    	9.021    
43.967    	7.586    	9.318    
45.255    	7.603    	9.671    
46.581    	7.615    	10.027    
47.946    	7.632    	10.375    
49.351    	7.657    	10.741    
50.797    	7.677    	11.116    
52.285    	7.693    	11.497    
53.817    	7.712    	11.927    
55.394    	7.732    	12.388    
57.018    	7.752    	12.743    
58.688    	7.778    	13.142    
60.408    	7.812    	13.648    
62.178    	7.853    	14.232    
64.000    	7.892    	14.791    
65.875    	7.928    	15.369    
67.806    	7.964    	15.948    
69.792    	8.011    	16.606    
71.838    	8.071    	17.359    
73.943    	8.139    	18.058    
76.109    	8.218    	18.752    
78.339    	8.299    	19.654    
80.635    	8.389    	20.724    
82.998    	8.494    	21.775    
85.430    	8.623    	22.635    
87.933    	8.779    	23.562    
90.510    	8.929    	24.783    
93.162    	9.093    	26.193    
95.892    	9.373    	27.862    
98.701    	9.704    	29.378    
101.594    	10.046    	30.726    
104.571    	10.460    	32.464    
107.635    	11.005    	35.101    
110.789    	11.911    	38.305    
114.035    	13.429    	40.765    
117.377    	15.758    	41.394    
120.816    	18.896    	38.980    
124.356    	22.670    	33.121    
128.000    	26.461    	23.648    
131.751    	29.657    	9.369    
135.611    	30.133    	-7.439    
139.585    	27.310    	-22.284    
143.675    	22.555    	-32.999    
147.885    	18.451    	-37.180    
152.219    	15.885    	-37.944    
156.679    	14.047    	-37.545    
161.270    	12.800    	-36.734    
165.995    	11.839    	-35.624    
170.860    	11.116    	-34.375    
175.866    	10.511    	-32.856    
181.019    	10.056    	-31.516    
186.324    	9.695    	-30.205    
191.783    	9.379    	-28.648    
197.403    	9.136    	-27.292    
203.187    	8.964    	-25.657    
209.141    	8.764    	-24.099    
215.269    	8.642    	-22.662    
221.577    	8.462    	-21.002    
228.070    	8.328    	-19.960    
234.753    	8.186    	-18.341    
241.632    	8.087    	-17.981    
248.712    	8.086    	-16.130    
256.000    	7.911    	-15.988    
263.501    	8.049    	-14.296    
271.223    	7.760    	-13.594    
279.170    	7.930    	-13.029    
287.350    	7.733    	-11.986    
295.770    	7.828    	-11.320    
304.437    	7.698    	-10.623    
313.358    	7.739    	-9.780    
322.540    	7.693    	-9.309    
331.991    	7.685    	-8.494    
341.719    	7.669    	-8.005    
351.732    	7.659    	-7.437    
362.039    	7.647    	-6.908    
372.647    	7.643    	-6.342    
383.567    	7.639    	-5.854    
394.806    	7.628    	-5.391    
406.375    	7.626    	-4.926    
418.282    	7.622    	-4.461    
430.539    	7.620    	-4.019    
443.155    	7.622    	-3.563    
456.140    	7.621    	-3.149    
469.506    	7.623    	-2.714    
483.264    	7.628    	-2.299    
497.424    	7.632    	-1.921    
512.000    	7.634    	-1.523    
527.003    	7.643    	-1.144    
542.445    	7.650    	-0.767    
558.340    	7.658    	-0.415    
574.701    	7.668    	-0.064    
591.541    	7.679    	0.287    
608.874    	7.687    	0.618    
626.715    	7.697    	0.946    
645.080    	7.709    	1.267    
663.982    	7.722    	1.614    
683.438    	7.735    	1.935    
703.464    	7.750    	2.237    
724.077    	7.763    	2.544    
745.294    	7.777    	2.858    
767.133    	7.794    	3.175    
789.612    	7.808    	3.470    
812.749    	7.825    	3.769    
836.565    	7.844    	4.065    
861.078    	7.861    	4.357    
886.309    	7.881    	4.650    
912.280    	7.904    	4.932    
939.012    	7.927    	5.218    
966.527    	7.949    	5.524    
994.849    	7.971    	5.847    
1024.000    	7.995    	6.104    
1054.005    	8.021    	6.385    
1084.890    	8.051    	6.684    
1116.680    	8.085    	6.965    
1149.401    	8.128    	7.282    
1183.081    	8.186    	7.499    
1217.748    	8.242    	7.482    
1253.431    	8.242    	7.464    
1290.159    	8.241    	7.679    
1327.964    	8.256    	7.948    
1366.876    	8.275    	8.251    
1406.929    	8.302    	8.561    
1448.155    	8.329    	8.853    
1490.589    	8.362    	9.153    
1534.266    	8.399    	9.463    
1579.224    	8.439    	9.783    
1625.499    	8.481    	10.081    
1673.129    	8.527    	10.402    
1722.156    	8.581    	10.752    
1772.619    	8.645    	11.086    
1824.561    	8.724    	11.466    
1878.024    	8.827    	11.828    
1933.055    	8.974    	12.050    
1989.697    	9.165    	11.869    
2048.000    	9.317    	10.851    
2108.011    	9.298    	9.640    
2169.780    	9.193    	9.178    
2233.360    	9.123    	9.122    
2298.802    	9.054    	9.249    
2366.162    	9.012    	9.625    
2435.496    	9.007    	10.065    
2506.862    	9.021    	10.475    
2580.318    	9.052    	10.817    
2655.927    	9.090    	11.102    
2733.752    	9.129    	11.346    
2813.857    	9.180    	11.598    
2896.309    	9.239    	11.675    
2981.178    	9.254    	11.716    
3068.533    	9.287    	11.902    
3158.448    	9.314    	11.999    
3250.997    	9.327    	12.218    
3346.259    	9.359    	12.477    
3444.312    	9.401    	12.714    
3545.238    	9.443    	12.931    
3649.121    	9.488    	13.124    
3756.049    	9.531    	13.324    
3866.109    	9.575    	13.508    
3979.395    	9.618    	13.681    
4096.000    	9.663    	13.850    
4216.022    	9.710    	14.031    
4339.561    	9.753    	14.197    
4466.720    	9.798    	14.377    
4597.605    	9.846    	14.555    
4732.325    	9.895    	14.718    
4870.992    	9.943    	14.870    
5013.723    	9.989    	15.040    
5160.637    	10.036    	15.209    
5311.855    	10.086    	15.384    
5467.504    	10.137    	15.551    
5627.714    	10.185    	15.707    
5792.619    	10.236    	15.889    
5962.355    	10.287    	16.096    
6137.066    	10.340    	16.286    
6316.896    	10.402    	16.489    
6501.995    	10.474    	16.724    
6692.518    	10.556    	16.936    
6888.623    	10.662    	17.012    
7090.476    	10.767    	16.750    
7298.242    	10.776    	16.369    
7512.097    	10.739    	16.393    
7732.218    	10.731    	16.688    
7958.790    	10.760    	17.022    
8192.000    	10.806    	17.330    
8432.044    	10.861    	17.602    
8679.122    	10.918    	17.839    
8933.439    	10.983    	17.997    
9195.209    	11.034    	18.129    
9464.649    	11.074    	18.309    
9741.985    	11.123    	18.550    
10027.447    	11.182    	18.755    
10321.273    	11.240    	18.865    
10623.710    	11.274    	18.965    
10935.008    	11.294    	19.195    
11255.428    	11.330    	19.516    
11585.238    	11.380    	19.810    
11924.711    	11.423    	20.111    
12274.132    	11.483    	20.443    
12633.791    	11.555    	20.719    
13003.989    	11.611    	20.897    
13385.035    	11.653    	21.178    
13777.247    	11.700    	21.449    
14180.951    	11.747    	21.763    
14596.485    	11.804    	22.105    
15024.194    	11.864    	22.456    
15464.437    	11.929    	22.792    
15917.579    	11.984    	23.134    
16384.000    	12.047    	23.474    
16864.088    	12.110    	23.829    
17358.243    	12.179    	24.224    
17866.879    	12.261    	24.587    
18390.418    	12.337    	24.890    
18929.299    	12.394    	25.188    
19483.969    	12.449    	25.583    
20054.893    	12.508    	25.958    
20642.546    	12.554    	26.394    
