* This data was exported from the Dayton Audio Test System: DATS
*
* Piston Diameter = 0 mm
* f(s)= 1455 Hz
* R(e)= 3.775 Ohms
* Z(max)= 6.381 Ohms
* Q(ms)= 2.515
* Q(es)= 3.643
* Q(ts)= 1.488
* V(as)= 0 liters     (0 cubic feet)
* L(e)= 0.176 mH
* n(0)= 0 %
* SPL= 0 1W/1m
* M(ms)= 0 grams
* C(ms)= 0 mm/N
* BL= 0 
* K(r)= 1.359 
* X(r)= 0.1017 
* K(i)= 3e-07 
* X(i)= 1.379 
*
*
Freq            Impedance       Phase
1.029    	3.780    	0.070    
1.059    	3.780    	0.070    
1.091    	3.780    	0.070    
1.122    	3.780    	0.070    
1.155    	3.780    	0.070    
1.189    	3.780    	0.070    
1.224    	3.780    	0.070    
1.260    	3.780    	0.070    
1.297    	3.780    	0.070    
1.335    	3.772    	0.028    
1.374    	3.772    	0.028    
1.414    	3.772    	0.028    
1.456    	3.772    	0.028    
1.498    	3.772    	0.028    
1.542    	3.772    	0.028    
1.587    	3.772    	0.028    
1.634    	3.772    	0.028    
1.682    	3.768    	0.010    
1.731    	3.768    	0.010    
1.782    	3.768    	0.010    
1.834    	3.768    	0.010    
1.888    	3.768    	0.010    
1.943    	3.768    	0.010    
2.000    	3.769    	-0.005    
2.059    	3.769    	-0.005    
2.119    	3.769    	-0.005    
2.181    	3.769    	-0.005    
2.245    	3.769    	-0.005    
2.311    	3.769    	-0.005    
2.378    	3.772    	-0.049    
2.448    	3.772    	-0.049    
2.520    	3.772    	-0.049    
2.594    	3.772    	-0.049    
2.670    	3.774    	-0.077    
2.748    	3.774    	-0.077    
2.828    	3.774    	-0.077    
2.911    	3.774    	-0.077    
2.997    	3.773    	-0.081    
3.084    	3.773    	-0.081    
3.175    	3.773    	-0.081    
3.268    	3.773    	-0.081    
3.364    	3.777    	-0.042    
3.462    	3.777    	-0.042    
3.564    	3.777    	-0.042    
3.668    	3.771    	0.011    
3.775    	3.771    	0.011    
3.886    	3.771    	0.011    
4.000    	3.771    	0.060    
4.117    	3.771    	0.060    
4.238    	3.771    	0.060    
4.362    	3.766    	0.102    
4.490    	3.766    	0.102    
4.621    	3.766    	0.102    
4.757    	3.768    	0.125    
4.896    	3.768    	0.125    
5.040    	3.772    	0.147    
5.187    	3.772    	0.147    
5.339    	3.777    	0.169    
5.496    	3.777    	0.169    
5.657    	3.780    	0.183    
5.823    	3.780    	0.183    
5.993    	3.780    	0.188    
6.169    	3.780    	0.188    
6.350    	3.779    	0.181    
6.536    	3.779    	0.181    
6.727    	3.778    	0.168    
6.924    	3.778    	0.168    
7.127    	3.777    	0.152    
7.336    	3.777    	0.142    
7.551    	3.777    	0.142    
7.772    	3.776    	0.143    
8.000    	3.776    	0.148    
8.234    	3.776    	0.148    
8.476    	3.776    	0.152    
8.724    	3.775    	0.154    
8.980    	3.776    	0.151    
9.243    	3.776    	0.151    
9.514    	3.776    	0.144    
9.792    	3.776    	0.138    
10.079    	3.776    	0.137    
10.375    	3.776    	0.137    
10.679    	3.775    	0.133    
10.992    	3.775    	0.129    
11.314    	3.774    	0.133    
11.645    	3.775    	0.141    
11.986    	3.775    	0.150    
12.338    	3.776    	0.161    
12.699    	3.776    	0.168    
13.071    	3.777    	0.170    
13.454    	3.777    	0.177    
13.849    	3.777    	0.195    
14.254    	3.777    	0.213    
14.672    	3.778    	0.218    
15.102    	3.778    	0.220    
15.545    	3.778    	0.228    
16.000    	3.779    	0.246    
16.469    	3.779    	0.266    
16.951    	3.780    	0.275    
17.448    	3.780    	0.285    
17.959    	3.780    	0.296    
18.486    	3.779    	0.296    
19.027    	3.779    	0.291    
19.585    	3.779    	0.288    
20.159    	3.780    	0.291    
20.749    	3.779    	0.298    
21.357    	3.779    	0.310    
21.983    	3.778    	0.322    
22.627    	3.778    	0.330    
23.290    	3.777    	0.335    
23.973    	3.777    	0.338    
24.675    	3.777    	0.342    
25.398    	3.777    	0.351    
26.143    	3.777    	0.361    
26.909    	3.778    	0.363    
27.697    	3.779    	0.357    
28.509    	3.780    	0.359    
29.344    	3.780    	0.368    
30.204    	3.780    	0.399    
31.089    	3.780    	0.430    
32.000    	3.780    	0.448    
32.938    	3.780    	0.467    
33.903    	3.778    	0.477    
34.896    	3.778    	0.493    
35.919    	3.778    	0.512    
36.971    	3.777    	0.526    
38.055    	3.777    	0.537    
39.170    	3.778    	0.534    
40.317    	3.778    	0.527    
41.499    	3.779    	0.522    
42.715    	3.780    	0.525    
43.967    	3.780    	0.553    
45.255    	3.779    	0.606    
46.581    	3.780    	0.637    
47.946    	3.780    	0.634    
49.351    	3.790    	0.771    
50.797    	3.788    	0.780    
52.285    	3.780    	0.706    
53.817    	3.782    	0.726    
55.394    	3.783    	0.756    
57.018    	3.783    	0.785    
58.688    	3.783    	0.836    
60.408    	3.782    	0.852    
62.178    	3.779    	0.859    
64.000    	3.780    	0.884    
65.875    	3.779    	0.895    
67.806    	3.780    	0.904    
69.792    	3.781    	0.938    
71.838    	3.783    	0.958    
73.943    	3.783    	0.966    
76.109    	3.782    	1.029    
78.339    	3.782    	1.070    
80.635    	3.783    	1.105    
82.998    	3.782    	1.116    
85.430    	3.782    	1.159    
87.933    	3.785    	1.193    
90.510    	3.785    	1.230    
93.162    	3.784    	1.214    
95.892    	3.785    	1.247    
98.701    	3.790    	1.326    
101.594    	3.788    	1.386    
104.571    	3.786    	1.391    
107.635    	3.788    	1.394    
110.789    	3.788    	1.421    
114.035    	3.789    	1.473    
117.377    	3.788    	1.542    
120.816    	3.787    	1.572    
124.356    	3.790    	1.640    
128.000    	3.791    	1.680    
131.751    	3.790    	1.697    
135.611    	3.789    	1.718    
139.585    	3.790    	1.778    
143.675    	3.792    	1.876    
147.885    	3.793    	1.921    
152.219    	3.792    	1.946    
156.679    	3.795    	2.038    
161.270    	3.792    	2.113    
165.995    	3.793    	2.131    
170.860    	3.796    	2.223    
175.866    	3.798    	2.250    
181.019    	3.798    	2.325    
186.324    	3.797    	2.418    
191.783    	3.799    	2.474    
197.403    	3.801    	2.508    
203.187    	3.802    	2.629    
209.141    	3.805    	2.670    
215.269    	3.806    	2.752    
221.577    	3.805    	2.820    
228.070    	3.807    	2.913    
234.753    	3.808    	3.009    
241.632    	3.812    	3.091    
248.712    	3.814    	3.186    
256.000    	3.814    	3.290    
263.501    	3.815    	3.348    
271.223    	3.817    	3.446    
279.170    	3.819    	3.560    
287.350    	3.819    	3.636    
295.770    	3.823    	3.720    
304.437    	3.825    	3.866    
313.358    	3.827    	3.976    
322.540    	3.831    	4.087    
331.991    	3.835    	4.223    
341.719    	3.835    	4.343    
351.732    	3.838    	4.457    
362.039    	3.841    	4.616    
372.647    	3.846    	4.744    
383.567    	3.852    	4.858    
394.806    	3.854    	4.989    
406.375    	3.855    	5.152    
418.282    	3.861    	5.315    
430.539    	3.865    	5.476    
443.155    	3.872    	5.649    
456.140    	3.877    	5.816    
469.506    	3.880    	5.987    
483.264    	3.885    	6.165    
497.424    	3.889    	6.337    
512.000    	3.898    	6.550    
527.003    	3.905    	6.756    
542.445    	3.913    	6.960    
558.340    	3.921    	7.194    
574.701    	3.930    	7.436    
591.541    	3.940    	7.670    
608.874    	3.947    	7.869    
626.715    	3.960    	8.142    
645.080    	3.972    	8.410    
663.982    	3.985    	8.703    
683.438    	3.998    	9.026    
703.464    	4.014    	9.313    
724.077    	4.033    	9.606    
745.294    	4.053    	9.977    
767.133    	4.074    	10.314    
789.612    	4.097    	10.671    
812.749    	4.121    	11.058    
836.565    	4.150    	11.426    
861.078    	4.182    	11.855    
886.309    	4.219    	12.276    
912.280    	4.264    	12.709    
939.012    	4.313    	13.178    
966.527    	4.371    	13.625    
994.849    	4.436    	14.139    
1024.000    	4.506    	14.518    
1054.005    	4.593    	14.892    
1084.890    	4.692    	15.250    
1116.680    	4.809    	15.502    
1149.401    	4.942    	15.657    
1183.081    	5.096    	15.633    
1217.748    	5.272    	15.352    
1253.431    	5.466    	14.739    
1290.159    	5.675    	13.722    
1327.964    	5.893    	12.190    
1366.876    	6.097    	10.117    
1406.929    	6.265    	7.537    
1448.155    	6.366    	4.541    
1490.589    	6.390    	1.334    
1534.266    	6.327    	-1.837    
1579.224    	6.189    	-4.722    
1625.499    	5.995    	-7.108    
1673.129    	5.771    	-8.939    
1722.156    	5.543    	-10.190    
1772.619    	5.329    	-10.959    
1824.561    	5.130    	-11.306    
1878.024    	4.953    	-11.348    
1933.055    	4.800    	-11.155    
1989.697    	4.669    	-10.715    
2048.000    	4.557    	-10.263    
2108.011    	4.461    	-9.722    
2169.780    	4.378    	-9.121    
2233.360    	4.309    	-8.464    
2298.802    	4.251    	-7.797    
2366.162    	4.201    	-7.149    
2435.496    	4.158    	-6.508    
2506.862    	4.122    	-5.868    
2580.318    	4.091    	-5.229    
2655.927    	4.065    	-4.632    
2733.752    	4.043    	-4.056    
2813.857    	4.024    	-3.488    
2896.309    	4.007    	-2.956    
2981.178    	3.990    	-2.418    
3068.533    	3.983    	-1.881    
3158.448    	3.973    	-1.396    
3250.997    	3.967    	-0.898    
3346.259    	3.959    	-0.426    
3444.312    	3.956    	0.017    
3545.238    	3.952    	0.480    
3649.121    	3.950    	0.941    
3756.049    	3.950    	1.374    
3866.109    	3.949    	1.781    
3979.395    	3.948    	2.146    
4096.000    	3.947    	2.552    
4216.022    	3.949    	2.946    
4339.561    	3.950    	3.330    
4466.720    	3.951    	3.788    
4597.605    	3.955    	4.181    
4732.325    	3.959    	4.552    
4870.992    	3.962    	4.917    
5013.723    	3.967    	5.315    
5160.637    	3.972    	5.677    
5311.855    	3.977    	6.051    
5467.504    	3.981    	6.445    
5627.714    	3.985    	6.843    
5792.619    	3.995    	7.241    
5962.355    	4.002    	7.654    
6137.066    	4.008    	7.994    
6316.896    	4.020    	8.342    
6501.995    	4.030    	8.722    
6692.518    	4.036    	9.129    
6888.623    	4.048    	9.510    
7090.476    	4.056    	9.881    
7298.242    	4.066    	10.257    
7512.097    	4.079    	10.646    
7732.218    	4.088    	11.032    
7958.790    	4.097    	11.420    
8192.000    	4.110    	11.846    
8432.044    	4.124    	12.267    
8679.122    	4.136    	12.668    
8933.439    	4.152    	13.060    
9195.209    	4.167    	13.488    
9464.649    	4.183    	13.910    
9741.985    	4.198    	14.337    
10027.447    	4.212    	14.771    
10321.273    	4.231    	15.222    
10623.710    	4.251    	15.667    
10935.008    	4.268    	16.067    
11255.428    	4.289    	16.522    
11585.238    	4.308    	16.970    
11924.711    	4.330    	17.413    
12274.132    	4.353    	17.854    
12633.791    	4.378    	18.317    
13003.989    	4.400    	18.764    
13385.035    	4.424    	19.234    
13777.247    	4.452    	19.703    
14180.951    	4.479    	20.186    
14596.485    	4.509    	20.643    
15024.194    	4.536    	21.135    
15464.437    	4.572    	21.587    
15917.579    	4.599    	22.020    
16384.000    	4.633    	22.493    
16864.088    	4.664    	22.974    
17358.243    	4.695    	23.432    
17866.879    	4.730    	23.926    
18390.418    	4.769    	24.422    
18929.299    	4.806    	24.900    
19483.969    	4.847    	25.363    
20054.893    	4.886    	25.840    
20642.546    	4.928    	26.336    
