* This data was exported from the Dayton Audio Test System: DATS
*
* Piston Diameter = 70 mm
* f(s)= 186.5 Hz
* R(e)= 5.898 Ohms
* Z(max)= 18.68 Ohms
* Q(ms)= 2.482
* Q(es)= 1.146
* Q(ts)= 0.784
* V(as)= 0.6569 liters     (0.0232 cubic feet)
* L(e)= 0.1376 mH
* n(0)= 0.3548 %
* SPL= 87.6 1W/1m
* M(ms)= 2.305 grams
* C(ms)= 0.316 mm/N
* BL= 3.729 
* K(r)= 0.1435 
* X(r)= 0.4007 
* K(i)= 0.02288 
* X(i)= 0.5404 
*
*
Freq            Impedance       Phase
1.029    	5.913    	0.302    
1.059    	5.913    	0.302    
1.091    	5.913    	0.302    
1.122    	5.913    	0.302    
1.155    	5.913    	0.302    
1.189    	5.913    	0.302    
1.224    	5.913    	0.302    
1.260    	5.913    	0.302    
1.297    	5.913    	0.302    
1.335    	5.905    	0.394    
1.374    	5.905    	0.394    
1.414    	5.905    	0.394    
1.456    	5.905    	0.394    
1.498    	5.905    	0.394    
1.542    	5.905    	0.394    
1.587    	5.905    	0.394    
1.634    	5.905    	0.394    
1.682    	5.896    	0.463    
1.731    	5.896    	0.463    
1.782    	5.896    	0.463    
1.834    	5.896    	0.463    
1.888    	5.896    	0.463    
1.943    	5.896    	0.463    
2.000    	5.898    	0.546    
2.059    	5.898    	0.546    
2.119    	5.898    	0.546    
2.181    	5.898    	0.546    
2.245    	5.898    	0.546    
2.311    	5.898    	0.546    
2.378    	5.901    	0.662    
2.448    	5.901    	0.662    
2.520    	5.901    	0.662    
2.594    	5.901    	0.662    
2.670    	5.909    	0.808    
2.748    	5.909    	0.808    
2.828    	5.909    	0.808    
2.911    	5.909    	0.808    
2.997    	5.912    	0.962    
3.084    	5.912    	0.962    
3.175    	5.912    	0.962    
3.268    	5.912    	0.962    
3.364    	5.916    	1.111    
3.462    	5.916    	1.111    
3.564    	5.916    	1.111    
3.668    	5.909    	1.246    
3.775    	5.909    	1.246    
3.886    	5.909    	1.246    
4.000    	5.905    	1.385    
4.117    	5.905    	1.385    
4.238    	5.905    	1.385    
4.362    	5.898    	1.516    
4.490    	5.898    	1.516    
4.621    	5.898    	1.516    
4.757    	5.899    	1.646    
4.896    	5.899    	1.646    
5.040    	5.900    	1.771    
5.187    	5.900    	1.771    
5.339    	5.902    	1.882    
5.496    	5.902    	1.882    
5.657    	5.904    	1.983    
5.823    	5.904    	1.983    
5.993    	5.906    	2.077    
6.169    	5.906    	2.077    
6.350    	5.911    	2.167    
6.536    	5.911    	2.167    
6.727    	5.920    	2.256    
6.924    	5.920    	2.256    
7.127    	5.927    	2.343    
7.336    	5.931    	2.434    
7.551    	5.931    	2.434    
7.772    	5.931    	2.525    
8.000    	5.929    	2.618    
8.234    	5.929    	2.618    
8.476    	5.927    	2.716    
8.724    	5.927    	2.817    
8.980    	5.928    	2.921    
9.243    	5.928    	2.921    
9.514    	5.930    	3.025    
9.792    	5.931    	3.129    
10.079    	5.933    	3.234    
10.375    	5.934    	3.339    
10.679    	5.935    	3.440    
10.992    	5.937    	3.534    
11.314    	5.941    	3.625    
11.645    	5.945    	3.720    
11.986    	5.948    	3.820    
12.338    	5.952    	3.920    
12.699    	5.954    	4.017    
13.071    	5.956    	4.110    
13.454    	5.958    	4.201    
13.849    	5.960    	4.291    
14.254    	5.962    	4.380    
14.672    	5.970    	4.512    
15.102    	5.980    	4.649    
15.545    	5.984    	4.751    
16.000    	5.984    	4.916    
16.469    	5.985    	5.083    
16.951    	5.992    	5.248    
17.448    	5.997    	5.405    
17.959    	5.998    	5.555    
18.486    	6.002    	5.711    
19.027    	6.009    	5.865    
19.585    	6.017    	6.058    
20.159    	6.020    	6.204    
20.749    	6.022    	6.344    
21.357    	6.028    	6.528    
21.983    	6.034    	6.709    
22.627    	6.037    	6.891    
23.290    	6.041    	7.063    
23.973    	6.050    	7.240    
24.675    	6.059    	7.429    
25.398    	6.066    	7.618    
26.143    	6.072    	7.809    
26.909    	6.087    	8.038    
27.697    	6.099    	8.263    
28.509    	6.107    	8.447    
29.344    	6.114    	8.689    
30.204    	6.120    	8.987    
31.089    	6.133    	9.223    
32.000    	6.147    	9.462    
32.938    	6.156    	9.731    
33.903    	6.170    	10.026    
34.896    	6.183    	10.314    
35.919    	6.195    	10.590    
36.971    	6.209    	10.851    
38.055    	6.223    	11.107    
39.170    	6.236    	11.406    
40.317    	6.253    	11.706    
41.499    	6.279    	11.983    
42.715    	6.299    	12.260    
43.967    	6.321    	12.657    
45.255    	6.345    	13.054    
46.581    	6.363    	13.467    
47.946    	6.378    	13.846    
49.351    	6.397    	14.190    
50.797    	6.423    	14.540    
52.285    	6.464    	14.905    
53.817    	6.500    	15.311    
55.394    	6.534    	15.744    
57.018    	6.565    	16.150    
58.688    	6.599    	16.584    
60.408    	6.639    	17.062    
62.178    	6.681    	17.561    
64.000    	6.719    	17.981    
65.875    	6.762    	18.474    
67.806    	6.815    	18.923    
69.792    	6.880    	19.389    
71.838    	6.947    	19.970    
73.943    	7.001    	20.550    
76.109    	7.061    	21.120    
78.339    	7.135    	21.646    
80.635    	7.228    	22.220    
82.998    	7.315    	22.779    
85.430    	7.405    	23.375    
87.933    	7.518    	24.004    
90.510    	7.623    	24.696    
93.162    	7.723    	25.223    
95.892    	7.873    	25.763    
98.701    	8.043    	26.448    
101.594    	8.196    	27.182    
104.571    	8.364    	27.731    
107.635    	8.565    	28.273    
110.789    	8.789    	28.821    
114.035    	9.053    	29.319    
117.377    	9.318    	29.940    
120.816    	9.604    	30.350    
124.356    	9.971    	30.554    
128.000    	10.375    	30.915    
131.751    	10.813    	31.053    
135.611    	11.302    	30.955    
139.585    	11.865    	30.471    
143.675    	12.569    	29.963    
147.885    	13.237    	29.013    
152.219    	14.017    	27.387    
156.679    	14.918    	25.383    
161.270    	15.830    	22.727    
165.995    	16.644    	19.202    
170.860    	17.515    	15.196    
175.866    	18.077    	10.640    
181.019    	18.452    	5.578    
186.324    	18.643    	0.499    
191.783    	18.375    	-4.742    
197.403    	17.965    	-10.002    
203.187    	17.298    	-14.152    
209.141    	16.469    	-18.152    
215.269    	15.670    	-21.420    
221.577    	14.683    	-24.208    
228.070    	13.858    	-26.240    
234.753    	13.011    	-27.470    
241.632    	12.290    	-28.533    
248.712    	11.578    	-28.773    
256.000    	11.008    	-29.032    
263.501    	10.445    	-28.678    
271.223    	10.014    	-28.425    
279.170    	9.563    	-27.864    
287.350    	9.217    	-27.188    
295.770    	8.853    	-26.493    
304.437    	8.571    	-25.400    
313.358    	8.322    	-24.560    
322.540    	8.073    	-23.393    
331.991    	7.895    	-22.268    
341.719    	7.721    	-21.316    
351.732    	7.558    	-20.194    
362.039    	7.433    	-19.074    
372.647    	7.312    	-18.066    
383.567    	7.198    	-16.995    
394.806    	7.104    	-15.858    
406.375    	7.028    	-14.785    
418.282    	6.961    	-13.746    
430.539    	6.900    	-12.756    
443.155    	6.849    	-11.754    
456.140    	6.809    	-10.786    
469.506    	6.775    	-9.851    
483.264    	6.744    	-8.929    
497.424    	6.721    	-8.073    
512.000    	6.701    	-7.194    
527.003    	6.689    	-6.320    
542.445    	6.682    	-5.478    
558.340    	6.682    	-4.705    
574.701    	6.690    	-3.963    
591.541    	6.696    	-3.266    
608.874    	6.706    	-2.589    
626.715    	6.724    	-2.003    
645.080    	6.741    	-1.488    
663.982    	6.761    	-1.021    
683.438    	6.775    	-0.622    
703.464    	6.776    	-0.287    
724.077    	6.771    	0.010    
745.294    	6.749    	0.340    
767.133    	6.725    	0.753    
789.612    	6.692    	1.258    
812.749    	6.661    	1.894    
836.565    	6.638    	2.569    
861.078    	6.624    	3.295    
886.309    	6.615    	4.102    
912.280    	6.612    	4.906    
939.012    	6.624    	5.724    
966.527    	6.641    	6.515    
994.849    	6.663    	7.302    
1024.000    	6.697    	8.098    
1054.005    	6.742    	8.796    
1084.890    	6.777    	9.318    
1116.680    	6.800    	9.921    
1149.401    	6.830    	10.664    
1183.081    	6.878    	11.447    
1217.748    	6.958    	12.124    
1253.431    	7.038    	12.444    
1290.159    	7.062    	12.659    
1327.964    	7.079    	13.195    
1366.876    	7.124    	13.854    
1406.929    	7.182    	14.433    
1448.155    	7.232    	14.920    
1490.589    	7.296    	15.426    
1534.266    	7.365    	15.854    
1579.224    	7.431    	16.125    
1625.499    	7.482    	16.352    
1673.129    	7.510    	16.586    
1722.156    	7.528    	16.987    
1772.619    	7.550    	17.473    
1824.561    	7.583    	18.041    
1878.024    	7.627    	18.683    
1933.055    	7.675    	19.266    
1989.697    	7.732    	19.879    
2048.000    	7.797    	20.431    
2108.011    	7.868    	20.992    
2169.780    	7.938    	21.501    
2233.360    	8.012    	22.025    
2298.802    	8.089    	22.538    
2366.162    	8.172    	23.018    
2435.496    	8.253    	23.514    
2506.862    	8.337    	23.972    
2580.318    	8.423    	24.458    
2655.927    	8.519    	24.899    
2733.752    	8.614    	25.314    
2813.857    	8.711    	25.679    
2896.309    	8.802    	26.047    
2981.178    	8.899    	26.444    
3068.533    	9.007    	26.801    
3158.448    	9.096    	27.147    
3250.997    	9.191    	27.543    
3346.259    	9.292    	27.920    
3444.312    	9.397    	28.285    
3545.238    	9.510    	28.670    
3649.121    	9.623    	29.020    
3756.049    	9.735    	29.341    
3866.109    	9.855    	29.691    
3979.395    	9.975    	29.997    
4096.000    	10.096    	30.290    
4216.022    	10.218    	30.561    
4339.561    	10.331    	30.835    
4466.720    	10.446    	31.160    
4597.605    	10.571    	31.480    
4732.325    	10.701    	31.801    
4870.992    	10.834    	32.122    
5013.723    	10.970    	32.422    
5160.637    	11.110    	32.741    
5311.855    	11.259    	33.019    
5467.504    	11.405    	33.282    
5627.714    	11.551    	33.558    
5792.619    	11.708    	33.810    
5962.355    	11.860    	34.060    
6137.066    	12.021    	34.298    
6316.896    	12.187    	34.509    
6501.995    	12.347    	34.730    
6692.518    	12.517    	34.937    
6888.623    	12.689    	35.147    
7090.476    	12.856    	35.335    
7298.242    	13.036    	35.539    
7512.097    	13.219    	35.707    
7732.218    	13.400    	35.839    
7958.790    	13.583    	35.975    
8192.000    	13.758    	36.110    
8432.044    	13.938    	36.271    
8679.122    	14.122    	36.411    
8933.439    	14.313    	36.561    
9195.209    	14.510    	36.711    
9464.649    	14.714    	36.803    
9741.985    	14.880    	36.850    
10027.447    	15.070    	37.092    
10321.273    	15.288    	37.177    
10623.710    	15.481    	37.220    
10935.008    	15.663    	37.326    
11255.428    	15.859    	37.492    
11585.238    	16.068    	37.645    
11924.711    	16.281    	37.761    
12274.132    	16.494    	37.868    
12633.791    	16.708    	37.983    
13003.989    	16.919    	38.081    
13385.035    	17.137    	38.210    
13777.247    	17.360    	38.314    
14180.951    	17.580    	38.423    
14596.485    	17.810    	38.515    
15024.194    	18.033    	38.622    
15464.437    	18.270    	38.725    
15917.579    	18.495    	38.812    
16384.000    	18.726    	38.911    
16864.088    	18.959    	39.011    
17358.243    	19.183    	39.104    
17866.879    	19.394    	39.202    
18390.418    	19.602    	39.318    
18929.299    	19.800    	39.442    
19483.969    	19.990    	39.568    
20054.893    	20.165    	39.710    
20642.546    	20.290    	39.898    
