* This data was exported from the Dayton Audio Test System: DATS
*
D    	180	[mm]
Re   	4.141	[Ohms]
Fs   	65.07	[Hz]
Zm   	16.95	[Ohms]
BL   	3.824	[N/A]
Qms  	6.918
Qes  	2.236
Qts  	1.69
Vas  	28.18 	[liters]
L10k 	0.1629	[mH]
n0   	0.3311	[%]
dBSPL  	87.3	[1W/1m]
Ms   	19.31	[grams]
Cms  	0.31	[mm/N]
*
*
Freq            Impedance       Phase
1.029    	4.143    	0.061    
1.059    	4.143    	0.061    
1.091    	4.143    	0.061    
1.122    	4.143    	0.061    
1.155    	4.143    	0.061    
1.189    	4.143    	0.061    
1.224    	4.143    	0.061    
1.260    	4.143    	0.061    
1.297    	4.143    	0.061    
1.335    	4.136    	0.215    
1.374    	4.136    	0.215    
1.414    	4.136    	0.215    
1.456    	4.136    	0.215    
1.498    	4.136    	0.215    
1.542    	4.136    	0.215    
1.587    	4.136    	0.215    
1.634    	4.136    	0.215    
1.682    	4.132    	0.341    
1.731    	4.132    	0.341    
1.782    	4.132    	0.341    
1.834    	4.132    	0.341    
1.888    	4.132    	0.341    
1.943    	4.132    	0.341    
2.000    	4.134    	0.455    
2.059    	4.134    	0.455    
2.119    	4.134    	0.455    
2.181    	4.134    	0.455    
2.245    	4.134    	0.455    
2.311    	4.134    	0.455    
2.378    	4.136    	0.638    
2.448    	4.136    	0.638    
2.520    	4.136    	0.638    
2.594    	4.136    	0.638    
2.670    	4.138    	0.917    
2.748    	4.138    	0.917    
2.828    	4.138    	0.917    
2.911    	4.138    	0.917    
2.997    	4.137    	1.246    
3.084    	4.137    	1.246    
3.175    	4.137    	1.246    
3.268    	4.137    	1.246    
3.364    	4.141    	1.541    
3.462    	4.141    	1.541    
3.564    	4.141    	1.541    
3.668    	4.141    	1.785    
3.775    	4.141    	1.785    
3.886    	4.141    	1.785    
4.000    	4.148    	2.004    
4.117    	4.148    	2.004    
4.238    	4.148    	2.004    
4.362    	4.149    	2.240    
4.490    	4.149    	2.240    
4.621    	4.149    	2.240    
4.757    	4.154    	2.454    
4.896    	4.154    	2.454    
5.040    	4.160    	2.656    
5.187    	4.160    	2.656    
5.339    	4.164    	2.825    
5.496    	4.164    	2.825    
5.657    	4.167    	2.956    
5.823    	4.167    	2.956    
5.993    	4.167    	3.078    
6.169    	4.167    	3.078    
6.350    	4.167    	3.190    
6.536    	4.167    	3.190    
6.727    	4.167    	3.300    
6.924    	4.167    	3.300    
7.127    	4.168    	3.414    
7.336    	4.169    	3.542    
7.551    	4.169    	3.542    
7.772    	4.170    	3.696    
8.000    	4.172    	3.857    
8.234    	4.172    	3.857    
8.476    	4.173    	4.018    
8.724    	4.175    	4.189    
8.980    	4.176    	4.355    
9.243    	4.176    	4.355    
9.514    	4.178    	4.507    
9.792    	4.179    	4.651    
10.079    	4.180    	4.787    
10.375    	4.182    	4.915    
10.679    	4.184    	5.039    
10.992    	4.186    	5.169    
11.314    	4.188    	5.313    
11.645    	4.191    	5.460    
11.986    	4.194    	5.602    
12.338    	4.197    	5.745    
12.699    	4.199    	5.895    
13.071    	4.202    	6.052    
13.454    	4.205    	6.215    
13.849    	4.208    	6.383    
14.254    	4.211    	6.550    
14.672    	4.217    	6.789    
15.102    	4.222    	7.022    
15.545    	4.226    	7.178    
16.000    	4.232    	7.413    
16.469    	4.237    	7.659    
16.951    	4.242    	7.909    
17.448    	4.248    	8.155    
17.959    	4.253    	8.415    
18.486    	4.258    	8.684    
19.027    	4.263    	8.953    
19.585    	4.271    	9.373    
20.159    	4.275    	9.616    
20.749    	4.281    	9.913    
21.357    	4.289    	10.316    
21.983    	4.298    	10.709    
22.627    	4.307    	11.079    
23.290    	4.316    	11.422    
23.973    	4.326    	11.749    
24.675    	4.335    	12.069    
25.398    	4.345    	12.395    
26.143    	4.356    	12.751    
26.909    	4.371    	13.255    
27.697    	4.388    	13.816    
28.509    	4.404    	14.294    
29.344    	4.427    	14.897    
30.204    	4.457    	15.584    
31.089    	4.482    	16.126    
32.000    	4.507    	16.668    
32.938    	4.537    	17.358    
33.903    	4.567    	18.120    
34.896    	4.600    	18.942    
35.919    	4.638    	19.825    
36.971    	4.684    	20.754    
38.055    	4.739    	21.695    
39.170    	4.817    	22.796    
40.317    	4.877    	23.699    
41.499    	4.927    	24.540    
42.715    	5.023    	25.477    
43.967    	5.159    	26.762    
45.255    	5.304    	28.427    
46.581    	5.472    	30.254    
47.946    	5.687    	32.178    
49.351    	5.964    	34.021    
50.797    	6.392    	35.808    
52.285    	6.941    	37.165    
53.817    	7.639    	37.799    
55.394    	8.601    	37.548    
57.018    	9.663    	36.250    
58.688    	11.043    	33.345    
60.408    	12.833    	27.929    
62.178    	14.910    	18.988    
64.000    	16.483    	7.013    
65.875    	16.668    	-9.347    
67.806    	14.648    	-25.215    
69.792    	11.943    	-34.055    
71.838    	9.925    	-37.217    
73.943    	8.587    	-37.636    
76.109    	7.599    	-36.779    
78.339    	6.847    	-35.347    
80.635    	6.342    	-33.868    
82.998    	5.956    	-32.231    
85.430    	5.664    	-30.568    
87.933    	5.420    	-28.855    
90.510    	5.235    	-27.237    
93.162    	5.081    	-25.560    
95.892    	4.932    	-23.867    
98.701    	4.816    	-22.480    
101.594    	4.739    	-21.171    
104.571    	4.679    	-19.798    
107.635    	4.630    	-18.478    
110.789    	4.585    	-17.245    
114.035    	4.531    	-16.273    
117.377    	4.488    	-15.425    
120.816    	4.464    	-14.411    
124.356    	4.439    	-13.346    
128.000    	4.411    	-12.347    
131.751    	4.378    	-11.447    
135.611    	4.365    	-10.761    
139.585    	4.362    	-9.925    
143.675    	4.347    	-9.072    
147.885    	4.334    	-8.407    
152.219    	4.332    	-7.814    
156.679    	4.330    	-7.070    
161.270    	4.318    	-6.436    
165.995    	4.323    	-5.962    
170.860    	4.329    	-5.360    
175.866    	4.324    	-4.842    
181.019    	4.321    	-4.546    
186.324    	4.317    	-4.060    
191.783    	4.311    	-3.609    
197.403    	4.312    	-3.112    
203.187    	4.306    	-2.645    
209.141    	4.307    	-2.199    
215.269    	4.309    	-1.677    
221.577    	4.310    	-1.310    
228.070    	4.313    	-0.916    
234.753    	4.307    	-0.563    
241.632    	4.307    	-0.095    
248.712    	4.308    	0.287    
256.000    	4.312    	0.739    
263.501    	4.313    	1.127    
271.223    	4.318    	1.535    
279.170    	4.322    	1.913    
287.350    	4.326    	2.329    
295.770    	4.330    	2.664    
304.437    	4.334    	3.041    
313.358    	4.339    	3.470    
322.540    	4.345    	3.859    
331.991    	4.349    	4.229    
341.719    	4.354    	4.616    
351.732    	4.363    	5.026    
362.039    	4.371    	5.398    
372.647    	4.382    	5.767    
383.567    	4.392    	6.123    
394.806    	4.400    	6.447    
406.375    	4.405    	6.791    
418.282    	4.410    	7.173    
430.539    	4.418    	7.595    
443.155    	4.423    	7.969    
456.140    	4.433    	8.341    
469.506    	4.443    	8.757    
483.264    	4.453    	9.216    
497.424    	4.465    	9.634    
512.000    	4.478    	10.033    
527.003    	4.492    	10.450    
542.445    	4.507    	10.848    
558.340    	4.521    	11.270    
574.701    	4.535    	11.688    
591.541    	4.551    	12.124    
608.874    	4.569    	12.540    
626.715    	4.589    	12.957    
645.080    	4.609    	13.392    
663.982    	4.630    	13.848    
683.438    	4.654    	14.326    
703.464    	4.683    	14.696    
724.077    	4.707    	15.063    
745.294    	4.736    	15.588    
767.133    	4.780    	15.945    
789.612    	4.818    	16.077    
812.749    	4.843    	16.211    
836.565    	4.863    	16.279    
861.078    	4.865    	16.443    
886.309    	4.866    	16.779    
912.280    	4.870    	17.248    
939.012    	4.880    	17.806    
966.527    	4.898    	18.345    
994.849    	4.922    	18.903    
1024.000    	4.943    	19.380    
1054.005    	4.973    	19.888    
1084.890    	5.000    	20.425    
1116.680    	5.033    	20.946    
1149.401    	5.066    	21.419    
1183.081    	5.098    	21.933    
1217.748    	5.132    	22.426    
1253.431    	5.165    	22.941    
1290.159    	5.204    	23.459    
1327.964    	5.246    	23.996    
1366.876    	5.290    	24.525    
1406.929    	5.337    	25.043    
1448.155    	5.388    	25.479    
1490.589    	5.434    	25.856    
1534.266    	5.472    	26.364    
1579.224    	5.523    	26.932    
1625.499    	5.581    	27.466    
1673.129    	5.653    	27.898    
1722.156    	5.723    	28.103    
1772.619    	5.767    	28.190    
1824.561    	5.783    	28.511    
1878.024    	5.809    	29.098    
1933.055    	5.853    	29.778    
1989.697    	5.910    	30.446    
2048.000    	5.971    	31.015    
2108.011    	6.038    	31.592    
2169.780    	6.109    	32.139    
2233.360    	6.181    	32.683    
2298.802    	6.257    	33.138    
2366.162    	6.325    	33.596    
2435.496    	6.400    	34.096    
2506.862    	6.477    	34.600    
2580.318    	6.554    	35.102    
2655.927    	6.638    	35.623    
2733.752    	6.730    	36.140    
2813.857    	6.829    	36.603    
2896.309    	6.928    	36.950    
2981.178    	7.012    	37.293    
3068.533    	7.088    	37.658    
3158.448    	7.166    	38.222    
3250.997    	7.262    	38.831    
3346.259    	7.373    	39.403    
3444.312    	7.493    	39.929    
3545.238    	7.618    	40.388    
3649.121    	7.743    	40.809    
3756.049    	7.869    	41.234    
3866.109    	8.008    	41.617    
3979.395    	8.146    	41.890    
4096.000    	8.269    	42.178    
4216.022    	8.404    	42.671    
4339.561    	8.587    	43.036    
4466.720    	8.762    	43.046    
4597.605    	8.909    	42.941    
4732.325    	8.990    	42.776    
4870.992    	9.040    	43.344    
5013.723    	9.203    	44.028    
5160.637    	9.393    	44.357    
5311.855    	9.613    	44.370    
5467.504    	9.714    	43.765    
5627.714    	9.695    	44.230    
5792.619    	9.854    	45.149    
5962.355    	10.050    	45.415    
6137.066    	10.183    	45.543    
6316.896    	10.291    	45.885    
6501.995    	10.424    	46.562    
6692.518    	10.614    	47.139    
6888.623    	10.822    	47.609    
7090.476    	11.038    	47.899    
7298.242    	11.215    	48.228    
7512.097    	11.421    	48.750    
7732.218    	11.680    	49.182    
7958.790    	11.945    	49.381    
8192.000    	12.211    	49.633    
8432.044    	12.541    	49.671    
8679.122    	12.868    	49.224    
8933.439    	13.085    	48.138    
9195.209    	12.948    	47.462    
9464.649    	12.891    	48.577    
9741.985    	13.091    	49.663    
10027.447    	13.355    	50.340    
10321.273    	13.641    	50.774    
10623.710    	13.881    	51.055    
10935.008    	14.148    	51.482    
11255.428    	14.418    	51.748    
11585.238    	14.673    	52.072    
11924.711    	14.961    	52.433    
12274.132    	15.263    	52.748    
12633.791    	15.576    	53.020    
13003.989    	15.896    	53.267    
13385.035    	16.226    	53.495    
13777.247    	16.576    	53.692    
14180.951    	16.966    	53.778    
14596.485    	17.336    	53.470    
15024.194    	17.503    	53.270    
15464.437    	17.722    	53.699    
15917.579    	18.046    	54.081    
16384.000    	18.393    	54.354    
16864.088    	18.749    	54.594    
17358.243    	19.110    	54.813    
17866.879    	19.478    	55.006    
18390.418    	19.837    	55.178    
18929.299    	20.194    	55.335    
19483.969    	20.556    	55.491    
20054.893    	20.914    	55.662    
20642.546    	21.279    	55.869    
