* This data was exported from the Dayton Audio Test System: DATS
*
* Piston Diameter = 22 mm
* f(s)= 915.8 Hz
* R(e)= 3.499 Ohms
* Z(max)= 16.82 Ohms
* Q(ms)= 5.587
* Q(es)= 1.467
* Q(ts)= 1.162
* V(as)= 0 liters     (0 cubic feet)
* L(e)= 0.02542 mH
* n(0)= 0 %
* SPL= 0 1W/1m
* M(ms)= 0 grams
* C(ms)= 0 mm/N
* BL= 0 
* K(r)= 0.5649 
* X(r)= 0.1857 
* K(i)= 1.7e-06 
* X(i)= 1.24 
*
*
Freq            Impedance       Phase
1.029    	3.520    	-1.034    
1.059    	3.520    	-1.034    
1.091    	3.520    	-1.034    
1.122    	3.520    	-1.034    
1.155    	3.520    	-1.034    
1.189    	3.520    	-1.034    
1.224    	3.520    	-1.034    
1.260    	3.520    	-1.034    
1.297    	3.520    	-1.034    
1.335    	3.508    	-0.971    
1.374    	3.508    	-0.971    
1.414    	3.508    	-0.971    
1.456    	3.508    	-0.971    
1.498    	3.508    	-0.971    
1.542    	3.508    	-0.971    
1.587    	3.508    	-0.971    
1.634    	3.508    	-0.971    
1.682    	3.491    	-0.926    
1.731    	3.491    	-0.926    
1.782    	3.491    	-0.926    
1.834    	3.491    	-0.926    
1.888    	3.491    	-0.926    
1.943    	3.491    	-0.926    
2.000    	3.492    	-0.881    
2.059    	3.492    	-0.881    
2.119    	3.492    	-0.881    
2.181    	3.492    	-0.881    
2.245    	3.492    	-0.881    
2.311    	3.492    	-0.881    
2.378    	3.490    	-0.741    
2.448    	3.490    	-0.741    
2.520    	3.490    	-0.741    
2.594    	3.490    	-0.741    
2.670    	3.494    	-0.591    
2.748    	3.494    	-0.591    
2.828    	3.494    	-0.591    
2.911    	3.494    	-0.591    
2.997    	3.497    	-0.355    
3.084    	3.497    	-0.355    
3.175    	3.497    	-0.355    
3.268    	3.497    	-0.355    
3.364    	3.506    	-0.192    
3.462    	3.506    	-0.192    
3.564    	3.506    	-0.192    
3.668    	3.508    	-0.038    
3.775    	3.508    	-0.038    
3.886    	3.508    	-0.038    
4.000    	3.507    	0.122    
4.117    	3.507    	0.122    
4.238    	3.507    	0.122    
4.362    	3.499    	0.212    
4.490    	3.499    	0.212    
4.621    	3.499    	0.212    
4.757    	3.497    	0.306    
4.896    	3.497    	0.306    
5.040    	3.496    	0.386    
5.187    	3.496    	0.386    
5.339    	3.499    	0.446    
5.496    	3.499    	0.446    
5.657    	3.500    	0.489    
5.823    	3.500    	0.489    
5.993    	3.500    	0.485    
6.169    	3.500    	0.485    
6.350    	3.502    	0.473    
6.536    	3.502    	0.473    
6.727    	3.503    	0.459    
6.924    	3.503    	0.459    
7.127    	3.504    	0.448    
7.336    	3.503    	0.465    
7.551    	3.503    	0.465    
7.772    	3.500    	0.489    
8.000    	3.495    	0.518    
8.234    	3.495    	0.518    
8.476    	3.490    	0.555    
8.724    	3.489    	0.583    
8.980    	3.490    	0.614    
9.243    	3.490    	0.614    
9.514    	3.488    	0.636    
9.792    	3.485    	0.624    
10.079    	3.484    	0.608    
10.375    	3.484    	0.608    
10.679    	3.483    	0.610    
10.992    	3.482    	0.604    
11.314    	3.483    	0.585    
11.645    	3.484    	0.570    
11.986    	3.485    	0.572    
12.338    	3.485    	0.575    
12.699    	3.486    	0.571    
13.071    	3.487    	0.567    
13.454    	3.486    	0.563    
13.849    	3.486    	0.563    
14.254    	3.487    	0.574    
14.672    	3.490    	0.595    
15.102    	3.493    	0.620    
15.545    	3.495    	0.649    
16.000    	3.496    	0.720    
16.469    	3.495    	0.787    
16.951    	3.495    	0.845    
17.448    	3.494    	0.889    
17.959    	3.496    	0.909    
18.486    	3.499    	0.933    
19.027    	3.500    	0.960    
19.585    	3.498    	0.985    
20.159    	3.497    	1.017    
20.749    	3.498    	1.047    
21.357    	3.498    	1.093    
21.983    	3.497    	1.141    
22.627    	3.495    	1.184    
23.290    	3.493    	1.202    
23.973    	3.492    	1.211    
24.675    	3.491    	1.221    
25.398    	3.491    	1.232    
26.143    	3.493    	1.241    
26.909    	3.495    	1.240    
27.697    	3.493    	1.253    
28.509    	3.496    	1.273    
29.344    	3.496    	1.327    
30.204    	3.499    	1.400    
31.089    	3.499    	1.464    
32.000    	3.503    	1.518    
32.938    	3.503    	1.584    
33.903    	3.501    	1.668    
34.896    	3.500    	1.743    
35.919    	3.498    	1.797    
36.971    	3.497    	1.835    
38.055    	3.497    	1.867    
39.170    	3.496    	1.894    
40.317    	3.494    	1.900    
41.499    	3.496    	1.894    
42.715    	3.500    	1.900    
43.967    	3.506    	2.012    
45.255    	3.506    	2.150    
46.581    	3.506    	2.243    
47.946    	3.505    	2.311    
49.351    	3.514    	2.375    
50.797    	3.511    	2.435    
52.285    	3.501    	2.500    
53.817    	3.502    	2.548    
55.394    	3.510    	2.569    
57.018    	3.509    	2.634    
58.688    	3.512    	2.698    
60.408    	3.513    	2.861    
62.178    	3.512    	2.961    
64.000    	3.510    	3.045    
65.875    	3.510    	3.104    
67.806    	3.507    	3.148    
69.792    	3.510    	3.185    
71.838    	3.515    	3.315    
73.943    	3.516    	3.483    
76.109    	3.516    	3.589    
78.339    	3.515    	3.721    
80.635    	3.515    	3.823    
82.998    	3.515    	3.802    
85.430    	3.521    	3.921    
87.933    	3.525    	4.112    
90.510    	3.521    	4.291    
93.162    	3.521    	4.337    
95.892    	3.522    	4.434    
98.701    	3.534    	4.560    
101.594    	3.535    	4.724    
104.571    	3.533    	4.855    
107.635    	3.529    	4.992    
110.789    	3.531    	5.063    
114.035    	3.539    	5.196    
117.377    	3.540    	5.404    
120.816    	3.539    	5.558    
124.356    	3.540    	5.684    
128.000    	3.546    	5.827    
131.751    	3.547    	6.055    
135.611    	3.544    	6.207    
139.585    	3.550    	6.279    
143.675    	3.556    	6.580    
147.885    	3.556    	6.790    
152.219    	3.556    	6.898    
156.679    	3.566    	7.099    
161.270    	3.565    	7.392    
165.995    	3.567    	7.509    
170.860    	3.577    	7.780    
175.866    	3.578    	8.011    
181.019    	3.579    	8.245    
186.324    	3.586    	8.498    
191.783    	3.589    	8.750    
197.403    	3.597    	8.956    
203.187    	3.602    	9.294    
209.141    	3.610    	9.475    
215.269    	3.620    	9.865    
221.577    	3.621    	10.102    
228.070    	3.629    	10.394    
234.753    	3.633    	10.690    
241.632    	3.645    	11.027    
248.712    	3.651    	11.367    
256.000    	3.663    	11.733    
263.501    	3.669    	12.039    
271.223    	3.680    	12.424    
279.170    	3.690    	12.780    
287.350    	3.698    	13.251    
295.770    	3.715    	13.610    
304.437    	3.724    	14.072    
313.358    	3.740    	14.508    
322.540    	3.756    	14.967    
331.991    	3.774    	15.423    
341.719    	3.792    	15.957    
351.732    	3.808    	16.437    
362.039    	3.830    	17.005    
372.647    	3.849    	17.584    
383.567    	3.877    	18.182    
394.806    	3.906    	18.722    
406.375    	3.933    	19.412    
418.282    	3.965    	20.024    
430.539    	3.997    	20.740    
443.155    	4.040    	21.488    
456.140    	4.082    	22.217    
469.506    	4.128    	23.046    
483.264    	4.183    	23.854    
497.424    	4.243    	24.696    
512.000    	4.309    	25.605    
527.003    	4.389    	26.535    
542.445    	4.476    	27.509    
558.340    	4.578    	28.517    
574.701    	4.688    	29.483    
591.541    	4.816    	30.476    
608.874    	4.955    	31.521    
626.715    	5.116    	32.621    
645.080    	5.307    	33.803    
663.982    	5.536    	35.060    
683.438    	5.811    	36.284    
703.464    	6.145    	37.488    
724.077    	6.569    	38.564    
745.294    	7.104    	39.385    
767.133    	7.787    	39.803    
789.612    	8.669    	39.622    
812.749    	9.844    	38.339    
836.565    	11.396    	35.278    
861.078    	13.326    	29.410    
886.309    	15.337    	19.756    
912.280    	16.675    	6.600    
939.012    	16.583    	-7.812    
966.527    	15.183    	-20.349    
994.849    	13.279    	-29.235    
1024.000    	11.501    	-34.887    
1054.005    	9.999    	-38.094    
1084.890    	8.810    	-39.603    
1116.680    	7.861    	-39.950    
1149.401    	7.109    	-39.499    
1183.081    	6.506    	-38.560    
1217.748    	6.026    	-37.245    
1253.431    	5.633    	-35.774    
1290.159    	5.313    	-34.128    
1327.964    	5.053    	-32.396    
1366.876    	4.836    	-30.664    
1406.929    	4.653    	-28.896    
1448.155    	4.501    	-27.232    
1490.589    	4.375    	-25.568    
1534.266    	4.271    	-23.967    
1579.224    	4.182    	-22.416    
1625.499    	4.105    	-20.941    
1673.129    	4.040    	-19.517    
1722.156    	3.984    	-18.132    
1772.619    	3.938    	-16.804    
1824.561    	3.906    	-15.528    
1878.024    	3.875    	-14.393    
1933.055    	3.843    	-13.362    
1989.697    	3.816    	-12.197    
2048.000    	3.792    	-11.194    
2108.011    	3.775    	-10.188    
2169.780    	3.763    	-9.207    
2233.360    	3.752    	-8.207    
2298.802    	3.743    	-7.357    
2366.162    	3.737    	-6.418    
2435.496    	3.734    	-5.618    
2506.862    	3.735    	-4.756    
2580.318    	3.737    	-3.956    
2655.927    	3.743    	-3.190    
2733.752    	3.751    	-2.452    
2813.857    	3.766    	-1.799    
2896.309    	3.777    	-1.228    
2981.178    	3.784    	-0.744    
3068.533    	3.795    	-0.294    
3158.448    	3.796    	0.130    
3250.997    	3.793    	0.591    
3346.259    	3.788    	1.082    
3444.312    	3.781    	1.663    
3545.238    	3.777    	2.379    
3649.121    	3.786    	3.063    
3756.049    	3.793    	3.675    
3866.109    	3.803    	4.313    
3979.395    	3.808    	4.879    
4096.000    	3.822    	5.419    
4216.022    	3.835    	5.982    
4339.561    	3.845    	6.533    
4466.720    	3.860    	7.130    
4597.605    	3.875    	7.650    
4732.325    	3.892    	8.199    
4870.992    	3.909    	8.717    
5013.723    	3.921    	9.247    
5160.637    	3.939    	9.801    
5311.855    	3.960    	10.290    
5467.504    	3.978    	10.848    
5627.714    	3.997    	11.379    
5792.619    	4.021    	11.902    
5962.355    	4.046    	12.440    
6137.066    	4.074    	12.866    
6316.896    	4.104    	13.227    
6501.995    	4.125    	13.572    
6692.518    	4.138    	13.981    
6888.623    	4.155    	14.508    
7090.476    	4.176    	15.024    
7298.242    	4.202    	15.542    
7512.097    	4.230    	16.010    
7732.218    	4.260    	16.530    
7958.790    	4.291    	17.008    
8192.000    	4.322    	17.499    
8432.044    	4.352    	17.951    
8679.122    	4.385    	18.415    
8933.439    	4.422    	18.890    
9195.209    	4.457    	19.341    
9464.649    	4.498    	19.767    
9741.985    	4.532    	20.197    
10027.447    	4.568    	20.667    
10321.273    	4.611    	21.138    
10623.710    	4.650    	21.524    
10935.008    	4.694    	21.910    
11255.428    	4.740    	22.331    
11585.238    	4.785    	22.757    
11924.711    	4.830    	23.172    
12274.132    	4.877    	23.553    
12633.791    	4.926    	23.951    
13003.989    	4.974    	24.291    
13385.035    	5.026    	24.666    
13777.247    	5.082    	25.007    
14180.951    	5.135    	25.330    
14596.485    	5.194    	25.638    
15024.194    	5.243    	25.960    
15464.437    	5.302    	26.228    
15917.579    	5.350    	26.565    
16384.000    	5.411    	26.859    
16864.088    	5.469    	27.139    
17358.243    	5.521    	27.373    
17866.879    	5.576    	27.628    
18390.418    	5.626    	27.878    
18929.299    	5.675    	28.189    
19483.969    	5.725    	28.435    
20054.893    	5.775    	28.796    
20642.546    	5.827    	29.113    
