* This data was exported from the Dayton Audio Test System: DATS
*
D    	29	[mm]
Re   	4.595	[Ohms]
Fs   	3035	[Hz]
Zm   	6.955	[Ohms]
BL   	0	[N/A]
Qms  	1.338
Qes  	2.605
Qts  	0.884
Vas  	0 	[liters]
L10k 	0.05424	[mH]
n0   	0	[%]
dBSPL  	0	[1W/1m]
Ms   	0	[grams]
Cms  	0	[mm/N]
*
*
Freq            Impedance       Phase
1.029    	4.570    	-0.133    
1.059    	4.570    	-0.133    
1.091    	4.570    	-0.133    
1.122    	4.570    	-0.133    
1.155    	4.570    	-0.133    
1.189    	4.570    	-0.133    
1.224    	4.570    	-0.133    
1.260    	4.570    	-0.133    
1.297    	4.570    	-0.133    
1.335    	4.563    	-0.175    
1.374    	4.563    	-0.175    
1.414    	4.563    	-0.175    
1.456    	4.563    	-0.175    
1.498    	4.563    	-0.175    
1.542    	4.563    	-0.175    
1.587    	4.563    	-0.175    
1.634    	4.563    	-0.175    
1.682    	4.560    	-0.146    
1.731    	4.560    	-0.146    
1.782    	4.560    	-0.146    
1.834    	4.560    	-0.146    
1.888    	4.560    	-0.146    
1.943    	4.560    	-0.146    
2.000    	4.561    	-0.119    
2.059    	4.561    	-0.119    
2.119    	4.561    	-0.119    
2.181    	4.561    	-0.119    
2.245    	4.561    	-0.119    
2.311    	4.561    	-0.119    
2.378    	4.564    	-0.173    
2.448    	4.564    	-0.173    
2.520    	4.564    	-0.173    
2.594    	4.564    	-0.173    
2.670    	4.565    	-0.184    
2.748    	4.565    	-0.184    
2.828    	4.565    	-0.184    
2.911    	4.565    	-0.184    
2.997    	4.564    	-0.163    
3.084    	4.564    	-0.163    
3.175    	4.564    	-0.163    
3.268    	4.564    	-0.163    
3.364    	4.568    	-0.056    
3.462    	4.568    	-0.056    
3.564    	4.568    	-0.056    
3.668    	4.569    	0.054    
3.775    	4.569    	0.054    
3.886    	4.569    	0.054    
4.000    	4.575    	0.135    
4.117    	4.575    	0.135    
4.238    	4.575    	0.135    
4.362    	4.577    	0.205    
4.490    	4.577    	0.205    
4.621    	4.577    	0.205    
4.757    	4.580    	0.226    
4.896    	4.580    	0.226    
5.040    	4.586    	0.243    
5.187    	4.586    	0.243    
5.339    	4.591    	0.269    
5.496    	4.591    	0.269    
5.657    	4.595    	0.284    
5.823    	4.595    	0.284    
5.993    	4.595    	0.297    
6.169    	4.595    	0.297    
6.350    	4.594    	0.302    
6.536    	4.594    	0.302    
6.727    	4.593    	0.298    
6.924    	4.593    	0.298    
7.127    	4.592    	0.293    
7.336    	4.591    	0.291    
7.551    	4.591    	0.291    
7.772    	4.591    	0.296    
8.000    	4.592    	0.295    
8.234    	4.592    	0.295    
8.476    	4.592    	0.284    
8.724    	4.592    	0.279    
8.980    	4.592    	0.275    
9.243    	4.592    	0.275    
9.514    	4.592    	0.265    
9.792    	4.592    	0.253    
10.079    	4.592    	0.239    
10.375    	4.592    	0.224    
10.679    	4.592    	0.212    
10.992    	4.592    	0.208    
11.314    	4.592    	0.208    
11.645    	4.593    	0.206    
11.986    	4.593    	0.198    
12.338    	4.594    	0.189    
12.699    	4.594    	0.182    
13.071    	4.595    	0.178    
13.454    	4.595    	0.178    
13.849    	4.595    	0.184    
14.254    	4.595    	0.191    
14.672    	4.596    	0.199    
15.102    	4.597    	0.199    
15.545    	4.597    	0.198    
16.000    	4.598    	0.199    
16.469    	4.598    	0.207    
16.951    	4.599    	0.220    
17.448    	4.599    	0.228    
17.959    	4.600    	0.242    
18.486    	4.600    	0.266    
19.027    	4.601    	0.287    
19.585    	4.601    	0.307    
20.159    	4.600    	0.313    
20.749    	4.599    	0.321    
21.357    	4.598    	0.334    
21.983    	4.598    	0.350    
22.627    	4.597    	0.361    
23.290    	4.596    	0.367    
23.973    	4.595    	0.366    
24.675    	4.594    	0.351    
25.398    	4.594    	0.330    
26.143    	4.594    	0.309    
26.909    	4.595    	0.294    
27.697    	4.596    	0.293    
28.509    	4.598    	0.299    
29.344    	4.599    	0.308    
30.204    	4.601    	0.323    
31.089    	4.602    	0.346    
32.000    	4.602    	0.389    
32.938    	4.601    	0.441    
33.903    	4.601    	0.473    
34.896    	4.600    	0.477    
35.919    	4.599    	0.467    
36.971    	4.598    	0.469    
38.055    	4.598    	0.475    
39.170    	4.598    	0.465    
40.317    	4.597    	0.442    
41.499    	4.597    	0.426    
42.715    	4.599    	0.422    
43.967    	4.602    	0.444    
45.255    	4.605    	0.511    
46.581    	4.605    	0.570    
47.946    	4.602    	0.577    
49.351    	4.601    	0.658    
50.797    	4.600    	0.701    
52.285    	4.597    	0.656    
53.817    	4.598    	0.595    
55.394    	4.601    	0.537    
57.018    	4.606    	0.565    
58.688    	4.609    	0.666    
60.408    	4.607    	0.698    
62.178    	4.604    	0.728    
64.000    	4.600    	0.746    
65.875    	4.599    	0.752    
67.806    	4.599    	0.724    
69.792    	4.601    	0.735    
71.838    	4.607    	0.747    
73.943    	4.606    	0.826    
76.109    	4.606    	0.878    
78.339    	4.602    	0.902    
80.635    	4.599    	0.879    
82.998    	4.603    	0.854    
85.430    	4.608    	0.882    
87.933    	4.611    	0.959    
90.510    	4.609    	0.999    
93.162    	4.605    	1.014    
95.892    	4.603    	0.994    
98.701    	4.606    	0.916    
101.594    	4.610    	1.026    
104.571    	4.606    	1.165    
107.635    	4.603    	1.169    
110.789    	4.607    	1.131    
114.035    	4.611    	1.163    
117.377    	4.612    	1.244    
120.816    	4.607    	1.286    
124.356    	4.607    	1.259    
128.000    	4.612    	1.286    
131.751    	4.612    	1.399    
135.611    	4.609    	1.417    
139.585    	4.612    	1.402    
143.675    	4.615    	1.472    
147.885    	4.613    	1.558    
152.219    	4.613    	1.547    
156.679    	4.619    	1.596    
161.270    	4.614    	1.687    
165.995    	4.612    	1.668    
170.860    	4.618    	1.738    
175.866    	4.614    	1.810    
181.019    	4.617    	1.791    
186.324    	4.619    	1.895    
191.783    	4.616    	1.930    
197.403    	4.620    	1.984    
203.187    	4.618    	2.073    
209.141    	4.621    	2.041    
215.269    	4.624    	2.156    
221.577    	4.624    	2.165    
228.070    	4.626    	2.263    
234.753    	4.623    	2.292    
241.632    	4.627    	2.363    
248.712    	4.627    	2.397    
256.000    	4.629    	2.498    
263.501    	4.630    	2.550    
271.223    	4.631    	2.634    
279.170    	4.632    	2.674    
287.350    	4.632    	2.785    
295.770    	4.633    	2.828    
304.437    	4.635    	2.905    
313.358    	4.635    	2.987    
322.540    	4.636    	3.049    
331.991    	4.638    	3.136    
341.719    	4.640    	3.240    
351.732    	4.642    	3.333    
362.039    	4.644    	3.403    
372.647    	4.646    	3.481    
383.567    	4.646    	3.601    
394.806    	4.648    	3.703    
406.375    	4.651    	3.800    
418.282    	4.653    	3.881    
430.539    	4.655    	3.973    
443.155    	4.656    	4.091    
456.140    	4.660    	4.196    
469.506    	4.659    	4.311    
483.264    	4.660    	4.421    
497.424    	4.664    	4.529    
512.000    	4.666    	4.628    
527.003    	4.669    	4.777    
542.445    	4.671    	4.893    
558.340    	4.674    	5.040    
574.701    	4.677    	5.175    
591.541    	4.680    	5.316    
608.874    	4.682    	5.457    
626.715    	4.687    	5.610    
645.080    	4.691    	5.749    
663.982    	4.696    	5.890    
683.438    	4.698    	6.063    
703.464    	4.701    	6.232    
724.077    	4.706    	6.406    
745.294    	4.712    	6.580    
767.133    	4.716    	6.748    
789.612    	4.720    	6.895    
812.749    	4.726    	7.075    
836.565    	4.733    	7.279    
861.078    	4.738    	7.463    
886.309    	4.746    	7.641    
912.280    	4.751    	7.818    
939.012    	4.758    	7.996    
966.527    	4.761    	8.189    
994.849    	4.768    	8.432    
1024.000    	4.773    	8.606    
1054.005    	4.776    	8.813    
1084.890    	4.782    	9.042    
1116.680    	4.788    	9.253    
1149.401    	4.793    	9.518    
1183.081    	4.798    	9.806    
1217.748    	4.805    	10.077    
1253.431    	4.814    	10.350    
1290.159    	4.822    	10.658    
1327.964    	4.830    	10.929    
1366.876    	4.840    	11.237    
1406.929    	4.851    	11.562    
1448.155    	4.862    	11.884    
1490.589    	4.873    	12.195    
1534.266    	4.884    	12.537    
1579.224    	4.895    	12.924    
1625.499    	4.909    	13.291    
1673.129    	4.921    	13.669    
1722.156    	4.937    	14.069    
1772.619    	4.952    	14.483    
1824.561    	4.969    	14.904    
1878.024    	4.988    	15.378    
1933.055    	5.009    	15.869    
1989.697    	5.031    	16.368    
2048.000    	5.053    	16.857    
2108.011    	5.080    	17.430    
2169.780    	5.108    	18.055    
2233.360    	5.140    	18.673    
2298.802    	5.177    	19.347    
2366.162    	5.218    	20.080    
2435.496    	5.268    	20.886    
2506.862    	5.326    	21.752    
2580.318    	5.401    	22.678    
2655.927    	5.496    	23.698    
2733.752    	5.623    	24.851    
2813.857    	5.803    	26.128    
2896.309    	6.159    	27.215    
2981.178    	6.716    	25.042    
3068.533    	6.971    	19.459    
3158.448    	6.912    	15.666    
3250.997    	6.907    	14.274    
3346.259    	6.847    	13.735    
3444.312    	6.781    	13.747    
3545.238    	6.777    	13.669    
3649.121    	6.796    	13.566    
3756.049    	6.953    	13.404    
3866.109    	7.146    	11.126    
3979.395    	7.144    	7.897    
4096.000    	6.917    	4.994    
4216.022    	6.451    	3.868    
4339.561    	6.136    	6.165    
4466.720    	6.109    	8.017    
4597.605    	6.034    	8.618    
4732.325    	5.954    	9.632    
4870.992    	5.928    	10.678    
5013.723    	5.912    	11.210    
5160.637    	5.848    	11.482    
5311.855    	5.743    	12.278    
5467.504    	5.671    	13.643    
5627.714    	5.646    	15.128    
5792.619    	5.651    	16.518    
5962.355    	5.682    	17.784    
6137.066    	5.725    	18.857    
6316.896    	5.769    	19.785    
6501.995    	5.815    	20.595    
6692.518    	5.856    	21.317    
6888.623    	5.885    	22.068    
7090.476    	5.926    	22.935    
7298.242    	5.976    	23.780    
7512.097    	6.030    	24.557    
7732.218    	6.085    	25.306    
7958.790    	6.144    	26.030    
8192.000    	6.204    	26.754    
8432.044    	6.271    	27.460    
8679.122    	6.339    	28.141    
8933.439    	6.411    	28.800    
9195.209    	6.488    	29.432    
9464.649    	6.572    	30.045    
9741.985    	6.668    	30.483    
10027.447    	6.737    	30.655    
10321.273    	6.759    	31.126    
10623.710    	6.808    	31.966    
10935.008    	6.891    	32.763    
11255.428    	6.979    	33.448    
11585.238    	7.069    	34.085    
11924.711    	7.164    	34.678    
12274.132    	7.262    	35.268    
12633.791    	7.361    	35.844    
13003.989    	7.461    	36.399    
13385.035    	7.565    	36.920    
13777.247    	7.672    	37.474    
14180.951    	7.780    	38.003    
14596.485    	7.892    	38.496    
15024.194    	8.006    	38.989    
15464.437    	8.124    	39.490    
15917.579    	8.243    	39.990    
16384.000    	8.366    	40.508    
16864.088    	8.497    	41.022    
17358.243    	8.631    	41.486    
17866.879    	8.770    	41.952    
18390.418    	8.908    	42.405    
18929.299    	9.050    	42.855    
19483.969    	9.197    	43.319    
20054.893    	9.363    	43.794    
20642.546    	9.539    	44.295    
