* This data was exported from the Dayton Audio Test System: DATS
*
* Piston Diameter = 97 mm
* f(s)= 66.65 Hz
* R(e)= 2.53 Ohms
* Z(max)= 13.25 Ohms
* Q(ms)= 4.843
* Q(es)= 1.143
* Q(ts)= 0.9247
* V(as)= 3.967 liters     (0.1401 cubic feet)
* L(e)= 0.2183 mH
* n(0)= 0.09799 %
* SPL= 82.01 1W/1m
* M(ms)= 11.03 grams
* C(ms)= 0.517 mm/N
* BL= 3.197 
* K(r)= 0.03398 
* X(r)= 0.4826 
* K(i)= 0.004125 
* X(i)= 0.6869 
*
*
Freq            Impedance       Phase
1.029    	2.544    	0.220    
1.059    	2.544    	0.220    
1.091    	2.544    	0.220    
1.122    	2.544    	0.220    
1.155    	2.544    	0.220    
1.189    	2.544    	0.220    
1.224    	2.544    	0.220    
1.260    	2.544    	0.220    
1.297    	2.544    	0.220    
1.335    	2.537    	0.402    
1.374    	2.537    	0.402    
1.414    	2.537    	0.402    
1.456    	2.537    	0.402    
1.498    	2.537    	0.402    
1.542    	2.537    	0.402    
1.587    	2.537    	0.402    
1.634    	2.537    	0.402    
1.682    	2.532    	0.640    
1.731    	2.532    	0.640    
1.782    	2.532    	0.640    
1.834    	2.532    	0.640    
1.888    	2.532    	0.640    
1.943    	2.532    	0.640    
2.000    	2.533    	0.868    
2.059    	2.533    	0.868    
2.119    	2.533    	0.868    
2.181    	2.533    	0.868    
2.245    	2.533    	0.868    
2.311    	2.533    	0.868    
2.378    	2.535    	1.113    
2.448    	2.535    	1.113    
2.520    	2.535    	1.113    
2.594    	2.535    	1.113    
2.670    	2.537    	1.456    
2.748    	2.537    	1.456    
2.828    	2.537    	1.456    
2.911    	2.537    	1.456    
2.997    	2.536    	1.900    
3.084    	2.536    	1.900    
3.175    	2.536    	1.900    
3.268    	2.536    	1.900    
3.364    	2.539    	2.378    
3.462    	2.539    	2.378    
3.564    	2.539    	2.378    
3.668    	2.536    	2.861    
3.775    	2.536    	2.861    
3.886    	2.536    	2.861    
4.000    	2.537    	3.298    
4.117    	2.537    	3.298    
4.238    	2.537    	3.298    
4.362    	2.533    	3.705    
4.490    	2.533    	3.705    
4.621    	2.533    	3.705    
4.757    	2.535    	4.060    
4.896    	2.535    	4.060    
5.040    	2.539    	4.404    
5.187    	2.539    	4.404    
5.339    	2.544    	4.736    
5.496    	2.544    	4.736    
5.657    	2.548    	5.042    
5.823    	2.548    	5.042    
5.993    	2.549    	5.331    
6.169    	2.549    	5.331    
6.350    	2.550    	5.596    
6.536    	2.550    	5.596    
6.727    	2.552    	5.850    
6.924    	2.552    	5.850    
7.127    	2.554    	6.116    
7.336    	2.557    	6.396    
7.551    	2.557    	6.396    
7.772    	2.559    	6.682    
8.000    	2.562    	6.965    
8.234    	2.562    	6.965    
8.476    	2.564    	7.250    
8.724    	2.567    	7.535    
8.980    	2.571    	7.805    
9.243    	2.571    	7.805    
9.514    	2.574    	8.067    
9.792    	2.577    	8.330    
10.079    	2.579    	8.586    
10.375    	2.583    	8.829    
10.679    	2.586    	9.062    
10.992    	2.590    	9.295    
11.314    	2.594    	9.532    
11.645    	2.597    	9.776    
11.986    	2.601    	10.034    
12.338    	2.606    	10.303    
12.699    	2.612    	10.567    
13.071    	2.617    	10.823    
13.454    	2.622    	11.085    
13.849    	2.628    	11.359    
14.254    	2.634    	11.631    
14.672    	2.643    	12.010    
15.102    	2.652    	12.386    
15.545    	2.659    	12.650    
16.000    	2.668    	13.056    
16.469    	2.679    	13.467    
16.951    	2.689    	13.885    
17.448    	2.700    	14.320    
17.959    	2.711    	14.771    
18.486    	2.721    	15.208    
19.027    	2.731    	15.640    
19.585    	2.747    	16.288    
20.159    	2.756    	16.646    
20.749    	2.767    	17.065    
21.357    	2.782    	17.610    
21.983    	2.798    	18.147    
22.627    	2.814    	18.690    
23.290    	2.832    	19.226    
23.973    	2.850    	19.754    
24.675    	2.869    	20.279    
25.398    	2.889    	20.801    
26.143    	2.910    	21.326    
26.909    	2.938    	22.009    
27.697    	2.967    	22.733    
28.509    	2.992    	23.350    
29.344    	3.026    	24.144    
30.204    	3.069    	25.089    
31.089    	3.107    	25.836    
32.000    	3.147    	26.519    
32.938    	3.196    	27.300    
33.903    	3.247    	28.091    
34.896    	3.301    	28.991    
35.919    	3.360    	30.026    
36.971    	3.424    	31.156    
38.055    	3.497    	32.288    
39.170    	3.600    	33.571    
40.317    	3.678    	34.499    
41.499    	3.744    	35.225    
42.715    	3.868    	35.910    
43.967    	4.038    	36.862    
45.255    	4.201    	38.295    
46.581    	4.380    	40.206    
47.946    	4.615    	42.375    
49.351    	4.947    	44.342    
50.797    	5.452    	45.900    
52.285    	6.094    	46.378    
53.817    	6.883    	45.528    
55.394    	7.858    	43.153    
57.018    	8.780    	39.759    
58.688    	9.778    	34.858    
60.408    	10.838    	28.325    
62.178    	11.884    	20.283    
64.000    	12.671    	12.075    
65.875    	13.164    	2.092    
67.806    	13.103    	-9.999    
69.792    	12.325    	-22.313    
71.838    	10.916    	-32.335    
73.943    	9.336    	-37.900    
76.109    	7.965    	-40.084    
78.339    	6.951    	-40.961    
80.635    	6.304    	-41.393    
82.998    	5.805    	-41.235    
85.430    	5.384    	-40.685    
87.933    	5.019    	-40.123    
90.510    	4.729    	-39.469    
93.162    	4.483    	-38.454    
95.892    	4.222    	-37.252    
98.701    	4.042    	-36.252    
101.594    	3.900    	-34.912    
104.571    	3.753    	-33.406    
107.635    	3.637    	-32.119    
110.789    	3.540    	-30.606    
114.035    	3.438    	-29.151    
117.377    	3.366    	-27.952    
120.816    	3.316    	-26.282    
124.356    	3.251    	-24.671    
128.000    	3.200    	-23.102    
131.751    	3.131    	-21.459    
135.611    	3.091    	-20.250    
139.585    	3.061    	-18.866    
143.675    	3.014    	-17.605    
147.885    	2.982    	-16.459    
152.219    	2.956    	-15.600    
156.679    	2.951    	-14.254    
161.270    	2.927    	-13.103    
165.995    	2.919    	-11.988    
170.860    	2.905    	-10.962    
175.866    	2.896    	-10.062    
181.019    	2.887    	-9.399    
186.324    	2.879    	-8.314    
191.783    	2.877    	-7.464    
197.403    	2.873    	-6.551    
203.187    	2.872    	-5.809    
209.141    	2.865    	-5.218    
215.269    	2.873    	-4.218    
221.577    	2.865    	-3.650    
228.070    	2.866    	-2.812    
234.753    	2.871    	-2.141    
241.632    	2.879    	-1.415    
248.712    	2.886    	-0.699    
256.000    	2.891    	-0.066    
263.501    	2.892    	0.532    
271.223    	2.901    	1.191    
279.170    	2.910    	1.756    
287.350    	2.916    	2.354    
295.770    	2.927    	2.937    
304.437    	2.933    	3.519    
313.358    	2.942    	4.076    
322.540    	2.955    	4.648    
331.991    	2.969    	5.182    
341.719    	2.976    	5.724    
351.732    	2.986    	6.244    
362.039    	2.998    	6.748    
372.647    	3.012    	7.257    
383.567    	3.027    	7.744    
394.806    	3.038    	8.222    
406.375    	3.054    	8.757    
418.282    	3.070    	9.203    
430.539    	3.083    	9.674    
443.155    	3.100    	10.125    
456.140    	3.117    	10.535    
469.506    	3.129    	11.020    
483.264    	3.147    	11.509    
497.424    	3.163    	11.923    
512.000    	3.179    	12.380    
527.003    	3.198    	12.794    
542.445    	3.216    	13.214    
558.340    	3.234    	13.620    
574.701    	3.252    	14.071    
591.541    	3.272    	14.523    
608.874    	3.291    	14.924    
626.715    	3.311    	15.329    
645.080    	3.332    	15.740    
663.982    	3.356    	16.183    
683.438    	3.377    	16.601    
703.464    	3.398    	17.009    
724.077    	3.420    	17.421    
745.294    	3.446    	17.841    
767.133    	3.473    	18.273    
789.612    	3.496    	18.670    
812.749    	3.521    	19.069    
836.565    	3.550    	19.465    
861.078    	3.577    	19.840    
886.309    	3.602    	20.095    
912.280    	3.622    	20.409    
939.012    	3.646    	20.871    
966.527    	3.673    	21.343    
994.849    	3.700    	21.747    
1024.000    	3.729    	22.227    
1054.005    	3.762    	22.665    
1084.890    	3.792    	23.005    
1116.680    	3.819    	23.358    
1149.401    	3.850    	23.776    
1183.081    	3.882    	24.227    
1217.748    	3.917    	24.680    
1253.431    	3.949    	25.117    
1290.159    	3.984    	25.568    
1327.964    	4.025    	25.981    
1366.876    	4.063    	26.431    
1406.929    	4.100    	26.879    
1448.155    	4.139    	27.282    
1490.589    	4.183    	27.716    
1534.266    	4.225    	28.154    
1579.224    	4.268    	28.576    
1625.499    	4.314    	29.010    
1673.129    	4.362    	29.465    
1722.156    	4.410    	29.898    
1772.619    	4.463    	30.310    
1824.561    	4.519    	30.777    
1878.024    	4.577    	31.207    
1933.055    	4.639    	31.661    
1989.697    	4.713    	32.021    
2048.000    	4.788    	32.152    
2108.011    	4.857    	32.227    
2169.780    	4.915    	32.167    
2233.360    	4.947    	32.087    
2298.802    	4.957    	32.272    
2366.162    	4.981    	32.753    
2435.496    	5.015    	33.281    
2506.862    	5.057    	33.893    
2580.318    	5.112    	34.498    
2655.927    	5.175    	35.054    
2733.752    	5.241    	35.602    
2813.857    	5.313    	36.121    
2896.309    	5.384    	36.590    
2981.178    	5.458    	37.042    
3068.533    	5.537    	37.487    
3158.448    	5.616    	37.928    
3250.997    	5.695    	38.351    
3346.259    	5.779    	38.777    
3444.312    	5.864    	39.194    
3545.238    	5.952    	39.587    
3649.121    	6.039    	39.992    
3756.049    	6.132    	40.382    
3866.109    	6.229    	40.762    
3979.395    	6.323    	41.134    
4096.000    	6.420    	41.487    
4216.022    	6.521    	41.840    
4339.561    	6.620    	42.200    
4466.720    	6.728    	42.566    
4597.605    	6.838    	42.896    
4732.325    	6.951    	43.250    
4870.992    	7.064    	43.562    
5013.723    	7.181    	43.879    
5160.637    	7.300    	44.200    
5311.855    	7.428    	44.502    
5467.504    	7.556    	44.784    
5627.714    	7.684    	45.053    
5792.619    	7.821    	45.274    
5962.355    	7.955    	45.435    
6137.066    	8.078    	45.557    
6316.896    	8.190    	45.772    
6501.995    	8.311    	46.080    
6692.518    	8.445    	46.419    
6888.623    	8.587    	46.736    
7090.476    	8.731    	47.034    
7298.242    	8.884    	47.325    
7512.097    	9.044    	47.578    
7732.218    	9.203    	47.826    
7958.790    	9.363    	48.048    
8192.000    	9.529    	48.276    
8432.044    	9.696    	48.498    
8679.122    	9.867    	48.704    
8933.439    	10.041    	48.881    
9195.209    	10.216    	49.069    
9464.649    	10.393    	49.276    
9741.985    	10.576    	49.481    
10027.447    	10.762    	49.671    
10321.273    	10.952    	49.862    
10623.710    	11.145    	50.040    
10935.008    	11.340    	50.199    
11255.428    	11.541    	50.361    
11585.238    	11.745    	50.521    
11924.711    	11.951    	50.684    
12274.132    	12.166    	50.834    
12633.791    	12.381    	50.999    
13003.989    	12.598    	51.130    
13385.035    	12.820    	51.269    
13777.247    	13.044    	51.395    
14180.951    	13.271    	51.536    
14596.485    	13.505    	51.675    
15024.194    	13.741    	51.822    
15464.437    	13.985    	51.937    
15917.579    	14.222    	52.086    
16384.000    	14.471    	52.223    
16864.088    	14.723    	52.360    
17358.243    	14.977    	52.492    
17866.879    	15.231    	52.623    
18390.418    	15.486    	52.754    
18929.299    	15.740    	52.909    
19483.969    	15.991    	53.071    
20054.893    	16.244    	53.247    
20642.546    	16.503    	53.415    
