* This data was exported from the Dayton Audio Test System: DATS
*
* Piston Diameter = 61 mm
* f(s)= 88.42 Hz
* R(e)= 3.786 Ohms
* Z(max)= 28.74 Ohms
* Q(ms)= 4.535
* Q(es)= 0.6881
* Q(ts)= 0.5975
* V(as)= 0.5191 liters     (0.01833 cubic feet)
* L(e)= 0.8074 mH
* n(0)= 0.04972 %
* SPL= 79.06 1W/1m
* M(ms)= 7.487 grams
* C(ms)= 0.433 mm/N
* BL= 4.784 
* K(r)= 0.01399 
* X(r)= 0.6603 
* K(i)= 0.03459 
* X(i)= 0.6095 
*
*
Freq            Impedance       Phase
1.029    	3.800    	1.322    
1.059    	3.800    	1.322    
1.091    	3.800    	1.322    
1.122    	3.800    	1.322    
1.155    	3.800    	1.322    
1.189    	3.800    	1.322    
1.224    	3.800    	1.322    
1.260    	3.800    	1.322    
1.297    	3.800    	1.322    
1.335    	3.795    	1.535    
1.374    	3.795    	1.535    
1.414    	3.795    	1.535    
1.456    	3.795    	1.535    
1.498    	3.795    	1.535    
1.542    	3.795    	1.535    
1.587    	3.795    	1.535    
1.634    	3.795    	1.535    
1.682    	3.793    	1.775    
1.731    	3.793    	1.775    
1.782    	3.793    	1.775    
1.834    	3.793    	1.775    
1.888    	3.793    	1.775    
1.943    	3.793    	1.775    
2.000    	3.794    	2.106    
2.059    	3.794    	2.106    
2.119    	3.794    	2.106    
2.181    	3.794    	2.106    
2.245    	3.794    	2.106    
2.311    	3.794    	2.106    
2.378    	3.793    	2.491    
2.448    	3.793    	2.491    
2.520    	3.793    	2.491    
2.594    	3.793    	2.491    
2.670    	3.788    	2.907    
2.748    	3.788    	2.907    
2.828    	3.788    	2.907    
2.911    	3.788    	2.907    
2.997    	3.790    	3.296    
3.084    	3.790    	3.296    
3.175    	3.790    	3.296    
3.268    	3.790    	3.296    
3.364    	3.803    	3.662    
3.462    	3.803    	3.662    
3.564    	3.803    	3.662    
3.668    	3.805    	4.008    
3.775    	3.805    	4.008    
3.886    	3.805    	4.008    
4.000    	3.807    	4.319    
4.117    	3.807    	4.319    
4.238    	3.807    	4.319    
4.362    	3.800    	4.606    
4.490    	3.800    	4.606    
4.621    	3.800    	4.606    
4.757    	3.802    	4.904    
4.896    	3.802    	4.904    
5.040    	3.808    	5.222    
5.187    	3.808    	5.222    
5.339    	3.819    	5.560    
5.496    	3.819    	5.560    
5.657    	3.835    	5.911    
5.823    	3.835    	5.911    
5.993    	3.845    	6.265    
6.169    	3.845    	6.265    
6.350    	3.852    	6.618    
6.536    	3.852    	6.618    
6.727    	3.861    	6.963    
6.924    	3.861    	6.963    
7.127    	3.871    	7.297    
7.336    	3.879    	7.626    
7.551    	3.879    	7.626    
7.772    	3.883    	7.944    
8.000    	3.884    	8.251    
8.234    	3.884    	8.251    
8.476    	3.884    	8.559    
8.724    	3.890    	8.879    
8.980    	3.900    	9.209    
9.243    	3.900    	9.209    
9.514    	3.909    	9.542    
9.792    	3.917    	9.873    
10.079    	3.927    	10.207    
10.375    	3.937    	10.540    
10.679    	3.946    	10.860    
10.992    	3.957    	11.163    
11.314    	3.969    	11.460    
11.645    	3.975    	11.762    
11.986    	3.980    	12.067    
12.338    	3.988    	12.372    
12.699    	3.999    	12.683    
13.071    	4.007    	13.010    
13.454    	4.010    	13.347    
13.849    	4.016    	13.677    
14.254    	4.027    	13.997    
14.672    	4.049    	14.475    
15.102    	4.067    	14.951    
15.545    	4.077    	15.253    
16.000    	4.100    	15.680    
16.469    	4.121    	16.108    
16.951    	4.138    	16.538    
17.448    	4.156    	16.960    
17.959    	4.170    	17.400    
18.486    	4.183    	17.861    
19.027    	4.202    	18.322    
19.585    	4.229    	18.946    
20.159    	4.252    	19.423    
20.749    	4.277    	19.881    
21.357    	4.305    	20.462    
21.983    	4.337    	21.010    
22.627    	4.367    	21.547    
23.290    	4.396    	22.089    
23.973    	4.427    	22.649    
24.675    	4.458    	23.228    
25.398    	4.498    	23.813    
26.143    	4.537    	24.426    
26.909    	4.592    	25.166    
27.697    	4.643    	25.878    
28.509    	4.678    	26.438    
29.344    	4.727    	27.163    
30.204    	4.791    	28.039    
31.089    	4.844    	28.743    
32.000    	4.907    	29.457    
32.938    	4.980    	30.205    
33.903    	5.057    	30.998    
34.896    	5.137    	31.800    
35.919    	5.224    	32.616    
36.971    	5.314    	33.432    
38.055    	5.406    	34.215    
39.170    	5.520    	35.081    
40.317    	5.644    	35.908    
41.499    	5.773    	36.691    
42.715    	5.903    	37.475    
43.967    	6.042    	38.459    
45.255    	6.217    	39.563    
46.581    	6.409    	40.628    
47.946    	6.604    	41.603    
49.351    	6.834    	42.445    
50.797    	7.082    	43.350    
52.285    	7.350    	44.190    
53.817    	7.671    	45.138    
55.394    	8.067    	46.236    
57.018    	8.456    	47.154    
58.688    	8.902    	47.890    
60.408    	9.523    	48.583    
62.178    	10.233    	49.085    
64.000    	11.008    	49.301    
65.875    	11.959    	49.144    
67.806    	13.161    	48.231    
69.792    	14.623    	46.413    
71.838    	16.228    	43.533    
73.943    	17.719    	39.590    
76.109    	18.970    	34.877    
78.339    	20.324    	30.698    
80.635    	22.581    	26.403    
82.998    	25.369    	19.298    
85.430    	27.512    	9.444    
87.933    	28.614    	-3.009    
90.510    	27.835    	-15.989    
93.162    	25.100    	-27.120    
95.892    	21.324    	-35.856    
98.701    	18.326    	-40.067    
101.594    	16.277    	-41.900    
104.571    	14.652    	-43.554    
107.635    	13.444    	-45.438    
110.789    	12.239    	-46.949    
114.035    	11.131    	-47.644    
117.377    	10.224    	-47.602    
120.816    	9.371    	-47.045    
124.356    	8.697    	-46.482    
128.000    	8.159    	-45.286    
131.751    	7.596    	-43.927    
135.611    	7.150    	-42.733    
139.585    	6.795    	-41.187    
143.675    	6.456    	-39.136    
147.885    	6.107    	-37.212    
152.219    	5.871    	-36.014    
156.679    	5.700    	-33.577    
161.270    	5.427    	-30.946    
165.995    	5.196    	-29.604    
170.860    	5.119    	-28.077    
175.866    	4.968    	-25.122    
181.019    	4.779    	-23.738    
186.324    	4.742    	-22.542    
191.783    	4.676    	-19.810    
197.403    	4.544    	-18.180    
203.187    	4.517    	-16.519    
209.141    	4.443    	-14.475    
215.269    	4.388    	-13.053    
221.577    	4.368    	-11.110    
228.070    	4.329    	-9.481    
234.753    	4.315    	-7.881    
241.632    	4.293    	-6.283    
248.712    	4.286    	-4.659    
256.000    	4.278    	-3.160    
263.501    	4.280    	-1.628    
271.223    	4.286    	-0.204    
279.170    	4.296    	1.249    
287.350    	4.311    	2.677    
295.770    	4.329    	4.029    
304.437    	4.351    	5.358    
313.358    	4.373    	6.633    
322.540    	4.402    	7.953    
331.991    	4.436    	9.233    
341.719    	4.473    	10.424    
351.732    	4.510    	11.627    
362.039    	4.552    	12.778    
372.647    	4.597    	13.927    
383.567    	4.647    	15.046    
394.806    	4.696    	16.101    
406.375    	4.746    	17.196    
418.282    	4.803    	18.259    
430.539    	4.861    	19.287    
443.155    	4.924    	20.276    
456.140    	4.990    	21.217    
469.506    	5.050    	22.184    
483.264    	5.119    	23.110    
497.424    	5.188    	24.009    
512.000    	5.261    	24.906    
527.003    	5.337    	25.783    
542.445    	5.419    	26.645    
558.340    	5.502    	27.484    
574.701    	5.583    	28.314    
591.541    	5.669    	29.117    
608.874    	5.762    	29.913    
626.715    	5.850    	30.679    
645.080    	5.945    	31.421    
663.982    	6.042    	32.145    
683.438    	6.141    	32.874    
703.464    	6.249    	33.595    
724.077    	6.351    	34.277    
745.294    	6.459    	34.956    
767.133    	6.571    	35.621    
789.612    	6.686    	36.248    
812.749    	6.800    	36.883    
836.565    	6.921    	37.487    
861.078    	7.047    	38.108    
886.309    	7.168    	38.666    
912.280    	7.302    	39.247    
939.012    	7.431    	39.800    
966.527    	7.569    	40.342    
994.849    	7.710    	40.876    
1024.000    	7.845    	41.393    
1054.005    	7.987    	41.866    
1084.890    	8.138    	42.356    
1116.680    	8.283    	42.852    
1149.401    	8.443    	43.365    
1183.081    	8.604    	43.850    
1217.748    	8.767    	44.321    
1253.431    	8.933    	44.761    
1290.159    	9.110    	45.214    
1327.964    	9.286    	45.654    
1366.876    	9.466    	46.060    
1406.929    	9.660    	46.460    
1448.155    	9.854    	46.808    
1490.589    	10.036    	47.146    
1534.266    	10.221    	47.541    
1579.224    	10.431    	47.899    
1625.499    	10.642    	48.268    
1673.129    	10.858    	48.599    
1722.156    	11.079    	48.907    
1772.619    	11.303    	49.229    
1824.561    	11.534    	49.507    
1878.024    	11.767    	49.776    
1933.055    	12.016    	50.048    
1989.697    	12.265    	50.248    
2048.000    	12.514    	50.450    
2108.011    	12.757    	50.611    
2169.780    	12.999    	50.765    
2233.360    	13.238    	50.969    
2298.802    	13.499    	51.176    
2366.162    	13.750    	51.345    
2435.496    	14.001    	51.552    
2506.862    	14.259    	51.826    
2580.318    	14.546    	52.093    
2655.927    	14.833    	52.304    
2733.752    	15.124    	52.533    
2813.857    	15.424    	52.748    
2896.309    	15.741    	52.952    
2981.178    	16.058    	53.131    
3068.533    	16.385    	53.302    
3158.448    	16.722    	53.470    
3250.997    	17.063    	53.628    
3346.259    	17.411    	53.743    
3444.312    	17.758    	53.863    
3545.238    	18.120    	53.992    
3649.121    	18.489    	54.113    
3756.049    	18.863    	54.204    
3866.109    	19.242    	54.298    
3979.395    	19.625    	54.391    
4096.000    	20.015    	54.471    
4216.022    	20.414    	54.550    
4339.561    	20.825    	54.629    
4466.720    	21.239    	54.701    
4597.605    	21.664    	54.763    
4732.325    	22.097    	54.825    
4870.992    	22.535    	54.871    
5013.723    	22.983    	54.927    
5160.637    	23.438    	54.950    
5311.855    	23.902    	54.968    
5467.504    	24.373    	54.997    
5627.714    	24.846    	55.002    
5792.619    	25.330    	55.003    
5962.355    	25.825    	54.989    
6137.066    	26.317    	54.975    
6316.896    	26.811    	54.961    
6501.995    	27.315    	54.969    
6692.518    	27.828    	54.968    
6888.623    	28.349    	54.961    
7090.476    	28.876    	54.967    
7298.242    	29.421    	54.976    
7512.097    	29.974    	54.985    
7732.218    	30.540    	54.984    
7958.790    	31.118    	54.984    
8192.000    	31.702    	54.970    
8432.044    	32.295    	54.947    
8679.122    	32.900    	54.937    
8933.439    	33.513    	54.913    
9195.209    	34.129    	54.884    
9464.649    	34.758    	54.861    
9741.985    	35.390    	54.830    
10027.447    	36.030    	54.802    
10321.273    	36.685    	54.773    
10623.710    	37.345    	54.743    
10935.008    	38.018    	54.703    
11255.428    	38.692    	54.671    
11585.238    	39.381    	54.642    
11924.711    	40.081    	54.609    
12274.132    	40.791    	54.577    
12633.791    	41.508    	54.545    
13003.989    	42.241    	54.524    
13385.035    	42.975    	54.490    
13777.247    	43.721    	54.472    
14180.951    	44.471    	54.443    
14596.485    	45.237    	54.420    
15024.194    	46.013    	54.402    
15464.437    	46.796    	54.388    
15917.579    	47.591    	54.368    
16384.000    	48.405    	54.357    
16864.088    	49.216    	54.341    
17358.243    	50.022    	54.340    
17866.879    	50.809    	54.337    
18390.418    	51.563    	54.371    
18929.299    	52.325    	54.412    
19483.969    	53.060    	54.467    
20054.893    	53.770    	54.546    
20642.546    	54.412    	54.679    
