* This data was exported from the Dayton Audio Test System: DATS
*
* Piston Diameter = 80 mm
* f(s)= 101.9 Hz
* R(e)= 6.035 Ohms
* Z(max)= 62.91 Ohms
* Q(ms)= 8.102
* Q(es)= 0.8597
* Q(ts)= 0.7772
* V(as)= 1.794 liters     (0.06334 cubic feet)
* L(e)= 0.1346 mH
* n(0)= 0.2104 %
* SPL= 85.33 1W/1m
* M(ms)= 4.828 grams
* C(ms)= 0.505 mm/N
* BL= 4.658 
* K(r)= 2.095 
* X(r)= 0.1373 
* K(i)= 1.404 
* X(i)= 0.0662 
*
*
Freq            Impedance       Phase
1.029    	6.044    	1.088    
1.059    	6.044    	1.088    
1.091    	6.044    	1.088    
1.122    	6.044    	1.088    
1.155    	6.044    	1.088    
1.189    	6.044    	1.088    
1.224    	6.044    	1.088    
1.260    	6.044    	1.088    
1.297    	6.044    	1.088    
1.335    	6.042    	1.172    
1.374    	6.042    	1.172    
1.414    	6.042    	1.172    
1.456    	6.042    	1.172    
1.498    	6.042    	1.172    
1.542    	6.042    	1.172    
1.587    	6.042    	1.172    
1.634    	6.042    	1.172    
1.682    	6.042    	1.295    
1.731    	6.042    	1.295    
1.782    	6.042    	1.295    
1.834    	6.042    	1.295    
1.888    	6.042    	1.295    
1.943    	6.042    	1.295    
2.000    	6.042    	1.454    
2.059    	6.042    	1.454    
2.119    	6.042    	1.454    
2.181    	6.042    	1.454    
2.245    	6.042    	1.454    
2.311    	6.042    	1.454    
2.378    	6.044    	1.646    
2.448    	6.044    	1.646    
2.520    	6.044    	1.646    
2.594    	6.044    	1.646    
2.670    	6.045    	1.880    
2.748    	6.045    	1.880    
2.828    	6.045    	1.880    
2.911    	6.045    	1.880    
2.997    	6.047    	2.143    
3.084    	6.047    	2.143    
3.175    	6.047    	2.143    
3.268    	6.047    	2.143    
3.364    	6.054    	2.400    
3.462    	6.054    	2.400    
3.564    	6.054    	2.400    
3.668    	6.049    	2.645    
3.775    	6.049    	2.645    
3.886    	6.049    	2.645    
4.000    	6.053    	2.868    
4.117    	6.053    	2.868    
4.238    	6.053    	2.868    
4.362    	6.047    	3.081    
4.490    	6.047    	3.081    
4.621    	6.047    	3.081    
4.757    	6.046    	3.296    
4.896    	6.046    	3.296    
5.040    	6.047    	3.506    
5.187    	6.047    	3.506    
5.339    	6.057    	3.716    
5.496    	6.057    	3.716    
5.657    	6.072    	3.929    
5.823    	6.072    	3.929    
5.993    	6.084    	4.141    
6.169    	6.084    	4.141    
6.350    	6.092    	4.357    
6.536    	6.092    	4.357    
6.727    	6.097    	4.572    
6.924    	6.097    	4.572    
7.127    	6.095    	4.784    
7.336    	6.094    	4.999    
7.551    	6.094    	4.999    
7.772    	6.096    	5.216    
8.000    	6.098    	5.433    
8.234    	6.098    	5.433    
8.476    	6.099    	5.654    
8.724    	6.104    	5.876    
8.980    	6.112    	6.096    
9.243    	6.112    	6.096    
9.514    	6.122    	6.314    
9.792    	6.132    	6.528    
10.079    	6.141    	6.739    
10.375    	6.143    	6.949    
10.679    	6.142    	7.157    
10.992    	6.146    	7.369    
11.314    	6.153    	7.587    
11.645    	6.157    	7.809    
11.986    	6.160    	8.031    
12.338    	6.165    	8.254    
12.699    	6.171    	8.484    
13.071    	6.177    	8.713    
13.454    	6.184    	8.933    
13.849    	6.195    	9.143    
14.254    	6.207    	9.352    
14.672    	6.221    	9.671    
15.102    	6.229    	9.988    
15.545    	6.234    	10.195    
16.000    	6.243    	10.510    
16.469    	6.250    	10.835    
16.951    	6.258    	11.167    
17.448    	6.272    	11.502    
17.959    	6.287    	11.847    
18.486    	6.299    	12.191    
19.027    	6.312    	12.520    
19.585    	6.335    	12.948    
20.159    	6.347    	13.263    
20.749    	6.358    	13.575    
21.357    	6.369    	14.002    
21.983    	6.384    	14.439    
22.627    	6.403    	14.885    
23.290    	6.426    	15.327    
23.973    	6.452    	15.759    
24.675    	6.476    	16.178    
25.398    	6.503    	16.589    
26.143    	6.526    	17.010    
26.909    	6.556    	17.557    
27.697    	6.587    	18.139    
28.509    	6.609    	18.627    
29.344    	6.642    	19.230    
30.204    	6.691    	19.910    
31.089    	6.725    	20.440    
32.000    	6.768    	21.018    
32.938    	6.809    	21.655    
33.903    	6.853    	22.342    
34.896    	6.904    	23.043    
35.919    	6.961    	23.736    
36.971    	7.020    	24.404    
38.055    	7.081    	25.066    
39.170    	7.152    	25.855    
40.317    	7.231    	26.678    
41.499    	7.314    	27.488    
42.715    	7.403    	28.253    
43.967    	7.496    	29.182    
45.255    	7.603    	30.183    
46.581    	7.712    	31.209    
47.946    	7.830    	32.229    
49.351    	7.983    	33.219    
50.797    	8.140    	34.231    
52.285    	8.299    	35.211    
53.817    	8.488    	36.320    
55.394    	8.711    	37.663    
57.018    	8.936    	38.857    
58.688    	9.195    	40.021    
60.408    	9.522    	41.291    
62.178    	9.874    	42.462    
64.000    	10.216    	43.587    
65.875    	10.615    	44.872    
67.806    	11.125    	46.259    
69.792    	11.740    	47.608    
71.838    	12.414    	48.910    
73.943    	13.138    	50.211    
76.109    	14.012    	51.748    
78.339    	15.200    	53.595    
80.635    	16.866    	55.443    
82.998    	19.169    	56.829    
85.430    	22.194    	57.105    
87.933    	26.441    	55.698    
90.510    	31.794    	52.338    
93.162    	38.503    	46.398    
95.892    	47.825    	35.640    
98.701    	57.293    	20.415    
101.594    	62.373    	0.326    
104.571    	58.176    	-22.007    
107.635    	47.892    	-38.672    
110.789    	37.609    	-48.357    
114.035    	30.281    	-52.869    
117.377    	25.492    	-54.600    
120.816    	21.917    	-55.372    
124.356    	19.331    	-55.710    
128.000    	17.385    	-55.300    
131.751    	15.697    	-54.627    
135.611    	14.422    	-53.841    
139.585    	13.413    	-52.686    
143.675    	12.491    	-51.263    
147.885    	11.720    	-49.998    
152.219    	11.168    	-48.681    
156.679    	10.612    	-46.696    
161.270    	10.063    	-45.235    
165.995    	9.743    	-43.764    
170.860    	9.388    	-41.415    
175.866    	8.931    	-40.054    
181.019    	8.804    	-38.975    
186.324    	8.527    	-35.893    
191.783    	8.025    	-35.464    
197.403    	8.164    	-35.149    
203.187    	7.936    	-30.930    
209.141    	7.462    	-31.600    
215.269    	7.754    	-30.626    
221.577    	7.379    	-26.904    
228.070    	7.247    	-28.222    
234.753    	7.328    	-25.501    
241.632    	7.040    	-24.777    
248.712    	7.117    	-23.646    
256.000    	6.946    	-22.247    
263.501    	6.933    	-21.385    
271.223    	6.857    	-20.296    
279.170    	6.811    	-19.153    
287.350    	6.764    	-18.325    
295.770    	6.723    	-17.197    
304.437    	6.698    	-16.385    
313.358    	6.660    	-15.458    
322.540    	6.632    	-14.528    
331.991    	6.611    	-13.688    
341.719    	6.590    	-12.856    
351.732    	6.572    	-12.018    
362.039    	6.562    	-11.255    
372.647    	6.552    	-10.494    
383.567    	6.543    	-9.723    
394.806    	6.533    	-8.992    
406.375    	6.529    	-8.308    
418.282    	6.530    	-7.584    
430.539    	6.530    	-6.913    
443.155    	6.531    	-6.245    
456.140    	6.538    	-5.589    
469.506    	6.543    	-4.987    
483.264    	6.551    	-4.355    
497.424    	6.562    	-3.748    
512.000    	6.571    	-3.169    
527.003    	6.585    	-2.584    
542.445    	6.599    	-2.001    
558.340    	6.615    	-1.468    
574.701    	6.635    	-0.900    
591.541    	6.652    	-0.358    
608.874    	6.678    	0.170    
626.715    	6.700    	0.695    
645.080    	6.735    	1.203    
663.982    	6.767    	1.703    
683.438    	6.808    	2.124    
703.464    	6.855    	2.506    
724.077    	6.889    	2.744    
745.294    	6.909    	2.919    
767.133    	6.910    	3.191    
789.612    	6.916    	3.611    
812.749    	6.926    	4.097    
836.565    	6.950    	4.611    
861.078    	6.979    	5.183    
886.309    	7.015    	5.715    
912.280    	7.065    	6.266    
939.012    	7.143    	6.919    
966.527    	7.279    	6.833    
994.849    	7.258    	6.620    
1024.000    	7.271    	7.111    
1054.005    	7.322    	7.519    
1084.890    	7.378    	7.864    
1116.680    	7.436    	8.126    
1149.401    	7.497    	8.341    
1183.081    	7.553    	8.519    
1217.748    	7.604    	8.713    
1253.431    	7.664    	8.882    
1290.159    	7.727    	9.102    
1327.964    	7.800    	9.237    
1366.876    	7.885    	9.236    
1406.929    	7.974    	9.097    
1448.155    	8.041    	8.768    
1490.589    	8.079    	8.321    
1534.266    	8.072    	7.969    
1579.224    	8.054    	7.819    
1625.499    	8.039    	7.845    
1673.129    	8.024    	7.893    
1722.156    	8.024    	8.002    
1772.619    	8.021    	8.130    
1824.561    	8.010    	8.257    
1878.024    	7.999    	8.486    
1933.055    	8.001    	8.897    
1989.697    	8.038    	9.267    
2048.000    	8.061    	9.454    
2108.011    	8.086    	9.845    
2169.780    	8.183    	10.067    
2233.360    	8.199    	9.702    
2298.802    	8.178    	9.959    
2366.162    	8.203    	10.289    
2435.496    	8.236    	10.497    
2506.862    	8.263    	10.654    
2580.318    	8.286    	10.883    
2655.927    	8.317    	11.103    
2733.752    	8.351    	11.312    
2813.857    	8.382    	11.524    
2896.309    	8.420    	11.748    
2981.178    	8.458    	11.926    
3068.533    	8.494    	12.113    
3158.448    	8.535    	12.302    
3250.997    	8.572    	12.512    
3346.259    	8.614    	12.679    
3444.312    	8.648    	12.854    
3545.238    	8.688    	13.063    
3649.121    	8.737    	13.274    
3756.049    	8.791    	13.420    
3866.109    	8.826    	13.541    
3979.395    	8.864    	13.744    
4096.000    	8.909    	13.923    
4216.022    	8.962    	14.125    
4339.561    	9.022    	14.314    
4466.720    	9.086    	14.409    
4597.605    	9.147    	14.475    
4732.325    	9.209    	14.387    
4870.992    	9.239    	14.268    
5013.723    	9.246    	14.187    
5160.637    	9.231    	14.300    
5311.855    	9.237    	14.573    
5467.504    	9.266    	14.794    
5627.714    	9.273    	15.061    
5792.619    	9.304    	15.390    
5962.355    	9.341    	15.693    
6137.066    	9.376    	15.998    
6316.896    	9.420    	16.310    
6501.995    	9.475    	16.615    
6692.518    	9.521    	16.831    
6888.623    	9.562    	17.173    
7090.476    	9.608    	17.499    
7298.242    	9.664    	17.874    
7512.097    	9.735    	18.305    
7732.218    	9.817    	18.564    
7958.790    	9.882    	18.917    
8192.000    	9.976    	19.402    
8432.044    	10.123    	19.784    
8679.122    	10.305    	19.808    
8933.439    	10.437    	19.192    
9195.209    	10.376    	18.685    
9464.649    	10.300    	19.179    
9741.985    	10.352    	20.058    
10027.447    	10.472    	20.666    
10321.273    	10.637    	21.353    
10623.710    	10.900    	21.741    
10935.008    	11.212    	21.479    
11255.428    	11.464    	20.477    
11585.238    	11.563    	19.056    
11924.711    	11.570    	17.999    
12274.132    	11.486    	16.658    
12633.791    	11.270    	16.176    
13003.989    	11.111    	15.673    
13385.035    	10.829    	15.453    
13777.247    	10.571    	16.183    
14180.951    	10.387    	17.404    
14596.485    	10.342    	18.814    
15024.194    	10.369    	20.017    
15464.437    	10.424    	20.978    
15917.579    	10.488    	21.821    
16384.000    	10.562    	22.578    
16864.088    	10.619    	23.194    
17358.243    	10.682    	23.894    
17866.879    	10.754    	24.602    
18390.418    	10.829    	25.281    
18929.299    	10.916    	25.922    
19483.969    	11.010    	26.453    
20054.893    	11.088    	26.980    
20642.546    	11.155    	27.663    
