* This data was exported from the Dayton Audio Test System: DATS
*
* Piston Diameter = 77 mm
* f(s)= 160.7 Hz
* R(e)= 3.719 Ohms
* Z(max)= 43.4 Ohms
* Q(ms)= 11.76
* Q(es)= 1.102
* Q(ts)= 1.007
* V(as)= 0.5614 liters     (0.01983 cubic feet)
* L(e)= 0 mH
* n(0)= 0.2015 %
* SPL= 85.14 1W/1m
* M(ms)= 5.324 grams
* C(ms)= 0.184 mm/N
* BL= 4.259 
* K(r)= 1.925 
* X(r)= 0.1067 
* K(i)= 0.002702 
* X(i)= 0.6069 
*
*
Freq            Impedance       Phase
1.029    	3.688    	0.560    
1.059    	3.688    	0.560    
1.091    	3.688    	0.560    
1.122    	3.688    	0.560    
1.155    	3.688    	0.560    
1.189    	3.688    	0.560    
1.224    	3.688    	0.560    
1.260    	3.688    	0.560    
1.297    	3.688    	0.560    
1.335    	3.681    	0.623    
1.374    	3.681    	0.623    
1.414    	3.681    	0.623    
1.456    	3.681    	0.623    
1.498    	3.681    	0.623    
1.542    	3.681    	0.623    
1.587    	3.681    	0.623    
1.634    	3.681    	0.623    
1.682    	3.676    	0.686    
1.731    	3.676    	0.686    
1.782    	3.676    	0.686    
1.834    	3.676    	0.686    
1.888    	3.676    	0.686    
1.943    	3.676    	0.686    
2.000    	3.676    	0.739    
2.059    	3.676    	0.739    
2.119    	3.676    	0.739    
2.181    	3.676    	0.739    
2.245    	3.676    	0.739    
2.311    	3.676    	0.739    
2.378    	3.678    	0.821    
2.448    	3.678    	0.821    
2.520    	3.678    	0.821    
2.594    	3.678    	0.821    
2.670    	3.680    	0.928    
2.748    	3.680    	0.928    
2.828    	3.680    	0.928    
2.911    	3.680    	0.928    
2.997    	3.679    	1.048    
3.084    	3.679    	1.048    
3.175    	3.679    	1.048    
3.268    	3.679    	1.048    
3.364    	3.684    	1.175    
3.462    	3.684    	1.175    
3.564    	3.684    	1.175    
3.668    	3.680    	1.306    
3.775    	3.680    	1.306    
3.886    	3.680    	1.306    
4.000    	3.683    	1.433    
4.117    	3.683    	1.433    
4.238    	3.683    	1.433    
4.362    	3.679    	1.547    
4.490    	3.679    	1.547    
4.621    	3.679    	1.547    
4.757    	3.681    	1.661    
4.896    	3.681    	1.661    
5.040    	3.683    	1.785    
5.187    	3.683    	1.785    
5.339    	3.687    	1.904    
5.496    	3.687    	1.904    
5.657    	3.690    	2.013    
5.823    	3.690    	2.013    
5.993    	3.690    	2.127    
6.169    	3.690    	2.127    
6.350    	3.690    	2.251    
6.536    	3.690    	2.251    
6.727    	3.692    	2.377    
6.924    	3.692    	2.377    
7.127    	3.693    	2.502    
7.336    	3.694    	2.626    
7.551    	3.694    	2.626    
7.772    	3.695    	2.742    
8.000    	3.696    	2.846    
8.234    	3.696    	2.846    
8.476    	3.697    	2.945    
8.724    	3.698    	3.046    
8.980    	3.698    	3.146    
9.243    	3.698    	3.146    
9.514    	3.699    	3.242    
9.792    	3.700    	3.342    
10.079    	3.701    	3.449    
10.375    	3.702    	3.564    
10.679    	3.703    	3.684    
10.992    	3.703    	3.808    
11.314    	3.705    	3.928    
11.645    	3.706    	4.040    
11.986    	3.707    	4.144    
12.338    	3.708    	4.244    
12.699    	3.709    	4.344    
13.071    	3.710    	4.446    
13.454    	3.712    	4.551    
13.849    	3.714    	4.658    
14.254    	3.715    	4.768    
14.672    	3.717    	4.945    
15.102    	3.720    	5.126    
15.545    	3.721    	5.244    
16.000    	3.722    	5.412    
16.469    	3.723    	5.571    
16.951    	3.726    	5.728    
17.448    	3.728    	5.887    
17.959    	3.731    	6.051    
18.486    	3.734    	6.224    
19.027    	3.736    	6.404    
19.585    	3.739    	6.667    
20.159    	3.740    	6.809    
20.749    	3.742    	6.979    
21.357    	3.745    	7.201    
21.983    	3.749    	7.420    
22.627    	3.753    	7.640    
23.290    	3.756    	7.866    
23.973    	3.759    	8.092    
24.675    	3.762    	8.313    
25.398    	3.766    	8.527    
26.143    	3.770    	8.739    
26.909    	3.775    	9.010    
27.697    	3.780    	9.299    
28.509    	3.784    	9.540    
29.344    	3.789    	9.835    
30.204    	3.796    	10.169    
31.089    	3.802    	10.440    
32.000    	3.808    	10.729    
32.938    	3.816    	11.098    
33.903    	3.825    	11.468    
34.896    	3.833    	11.819    
35.919    	3.842    	12.145    
36.971    	3.850    	12.472    
38.055    	3.859    	12.816    
39.170    	3.869    	13.281    
40.317    	3.878    	13.688    
41.499    	3.885    	14.057    
42.715    	3.897    	14.417    
43.967    	3.912    	14.847    
45.255    	3.927    	15.383    
46.581    	3.942    	15.929    
47.946    	3.958    	16.426    
49.351    	4.003    	16.889    
50.797    	4.013    	17.430    
52.285    	4.010    	17.992    
53.817    	4.033    	18.553    
55.394    	4.056    	19.151    
57.018    	4.074    	19.707    
58.688    	4.101    	20.378    
60.408    	4.135    	21.053    
62.178    	4.167    	21.715    
64.000    	4.195    	22.386    
65.875    	4.230    	23.189    
67.806    	4.276    	23.952    
69.792    	4.312    	24.721    
71.838    	4.351    	25.616    
73.943    	4.406    	26.502    
76.109    	4.466    	27.397    
78.339    	4.521    	28.384    
80.635    	4.585    	29.488    
82.998    	4.670    	30.645    
85.430    	4.756    	31.579    
87.933    	4.835    	32.699    
90.510    	4.929    	34.150    
93.162    	5.063    	35.476    
95.892    	5.216    	36.611    
98.701    	5.346    	37.978    
101.594    	5.508    	39.800    
104.571    	5.750    	41.560    
107.635    	6.005    	42.843    
110.789    	6.243    	44.355    
114.035    	6.545    	46.491    
117.377    	6.993    	48.729    
120.816    	7.546    	50.285    
124.356    	8.118    	51.530    
128.000    	8.718    	53.574    
131.751    	9.721    	56.990    
135.611    	11.500    	60.195    
139.585    	14.075    	60.958    
143.675    	18.039    	58.390    
147.885    	23.288    	52.010    
152.219    	30.262    	40.977    
156.679    	39.003    	20.981    
161.270    	42.618    	-8.853    
165.995    	34.799    	-37.463    
170.860    	24.043    	-51.161    
175.866    	17.634    	-54.969    
181.019    	14.307    	-55.679    
186.324    	12.072    	-55.474    
191.783    	10.449    	-54.722    
197.403    	9.259    	-53.525    
203.187    	8.370    	-52.167    
209.141    	7.678    	-50.492    
215.269    	7.089    	-48.650    
221.577    	6.643    	-46.725    
228.070    	6.268    	-44.654    
234.753    	5.967    	-42.563    
241.632    	5.695    	-40.323    
248.712    	5.468    	-38.189    
256.000    	5.254    	-35.964    
263.501    	5.079    	-34.036    
271.223    	4.906    	-32.135    
279.170    	4.798    	-30.565    
287.350    	4.678    	-28.915    
295.770    	4.615    	-26.985    
304.437    	4.507    	-25.834    
313.358    	4.450    	-23.639    
322.540    	4.380    	-23.152    
331.991    	4.331    	-20.851    
341.719    	4.298    	-20.091    
351.732    	4.233    	-18.692    
362.039    	4.218    	-17.476    
372.647    	4.183    	-16.407    
383.567    	4.160    	-15.207    
394.806    	4.144    	-14.150    
406.375    	4.122    	-13.171    
418.282    	4.110    	-12.171    
430.539    	4.101    	-11.218    
443.155    	4.094    	-10.308    
456.140    	4.091    	-9.405    
469.506    	4.086    	-8.592    
483.264    	4.087    	-7.792    
497.424    	4.086    	-6.971    
512.000    	4.088    	-6.222    
527.003    	4.093    	-5.440    
542.445    	4.100    	-4.688    
558.340    	4.111    	-4.012    
574.701    	4.121    	-3.334    
591.541    	4.129    	-2.684    
608.874    	4.144    	-1.999    
626.715    	4.160    	-1.384    
645.080    	4.179    	-0.785    
663.982    	4.203    	-0.192    
683.438    	4.228    	0.370    
703.464    	4.261    	0.904    
724.077    	4.305    	1.207    
745.294    	4.329    	1.187    
767.133    	4.326    	1.334    
789.612    	4.323    	1.647    
812.749    	4.319    	2.043    
836.565    	4.319    	2.514    
861.078    	4.325    	3.080    
886.309    	4.339    	3.590    
912.280    	4.354    	4.065    
939.012    	4.370    	4.569    
966.527    	4.390    	5.100    
994.849    	4.413    	5.675    
1024.000    	4.446    	6.253    
1054.005    	4.503    	6.767    
1084.890    	4.567    	6.819    
1116.680    	4.575    	6.726    
1149.401    	4.585    	7.089    
1183.081    	4.599    	7.444    
1217.748    	4.623    	7.975    
1253.431    	4.662    	8.491    
1290.159    	4.723    	9.015    
1327.964    	4.807    	9.328    
1366.876    	4.911    	9.019    
1406.929    	4.952    	8.087    
1448.155    	4.919    	7.543    
1490.589    	4.875    	7.523    
1534.266    	4.851    	7.923    
1579.224    	4.867    	8.399    
1625.499    	4.887    	8.571    
1673.129    	4.889    	8.803    
1722.156    	4.905    	9.095    
1772.619    	4.923    	9.369    
1824.561    	4.935    	9.686    
1878.024    	4.955    	10.081    
1933.055    	4.986    	10.451    
1989.697    	5.026    	10.796    
2048.000    	5.070    	11.026    
2108.011    	5.107    	11.061    
2169.780    	5.130    	11.172    
2233.360    	5.156    	11.383    
2298.802    	5.195    	11.634    
2366.162    	5.240    	11.695    
2435.496    	5.271    	11.683    
2506.862    	5.295    	11.747    
2580.318    	5.319    	11.877    
2655.927    	5.354    	12.089    
2733.752    	5.412    	12.127    
2813.857    	5.453    	11.788    
2896.309    	5.449    	11.470    
2981.178    	5.430    	11.542    
3068.533    	5.432    	11.794    
3158.448    	5.446    	12.021    
3250.997    	5.465    	12.233    
3346.259    	5.484    	12.405    
3444.312    	5.506    	12.607    
3545.238    	5.527    	12.780    
3649.121    	5.545    	12.997    
3756.049    	5.572    	13.190    
3866.109    	5.597    	13.397    
3979.395    	5.627    	13.590    
4096.000    	5.654    	13.704    
4216.022    	5.676    	13.864    
4339.561    	5.702    	14.038    
4466.720    	5.727    	14.221    
4597.605    	5.754    	14.400    
4732.325    	5.779    	14.580    
4870.992    	5.808    	14.753    
5013.723    	5.833    	14.922    
5160.637    	5.854    	15.119    
5311.855    	5.882    	15.364    
5467.504    	5.914    	15.619    
5627.714    	5.946    	15.851    
5792.619    	5.987    	16.106    
5962.355    	6.034    	16.359    
6137.066    	6.093    	16.475    
6316.896    	6.135    	16.411    
6501.995    	6.162    	16.518    
6692.518    	6.223    	16.701    
6888.623    	6.271    	16.464    
7090.476    	6.281    	16.191    
7298.242    	6.267    	16.044    
7512.097    	6.231    	16.268    
7732.218    	6.233    	16.837    
7958.790    	6.254    	17.247    
8192.000    	6.289    	17.758    
8432.044    	6.333    	18.105    
8679.122    	6.394    	18.622    
8933.439    	6.516    	18.722    
9195.209    	6.553    	17.888    
9464.649    	6.467    	17.846    
9741.985    	6.447    	18.539    
10027.447    	6.477    	19.213    
10321.273    	6.533    	19.743    
10623.710    	6.586    	20.214    
10935.008    	6.692    	20.637    
11255.428    	6.777    	20.013    
11585.238    	6.688    	19.876    
11924.711    	6.673    	20.866    
12274.132    	6.745    	21.757    
12633.791    	6.858    	22.438    
13003.989    	7.021    	22.471    
13385.035    	7.041    	21.591    
13777.247    	6.978    	22.309    
14180.951    	7.109    	23.303    
14596.485    	7.341    	23.219    
15024.194    	7.418    	21.571    
15464.437    	7.300    	21.362    
15917.579    	7.378    	21.221    
16384.000    	7.263    	19.963    
16864.088    	7.029    	20.452    
17358.243    	6.951    	21.959    
17866.879    	6.973    	23.214    
18390.418    	7.022    	24.060    
18929.299    	7.051    	24.721    
19483.969    	7.082    	25.520    
20054.893    	7.130    	26.317    
20642.546    	7.186    	27.081    
